\tau/\tau_{d} vs n_{unpack}/N
0.0 1.0
0.2 0.9992098962490025
0.4 0.9960335195530726
0.6 0.9937988826815642
0.8 0.991364724660814
1.0 0.9890502793296089
1.2 0.9868794892258579
1.4 0.9845969672785315
1.6 0.9826656025538708
1.8 0.980830007980846
2.0 0.9788747007182761
2.2 0.9768395849960096
2.4 0.9750438946528333
2.6 0.9732242617717478
2.8 0.9715323224261772
3.0 0.9698723064644852
3.2 0.9680207501995212
3.4 0.9663128491620111
3.6 0.9646209098164406
3.8 0.963000798084597
4.0 0.9612051077414207
4.2 0.9596009577015164
4.4 0.9578691141260974
4.6 0.9562809257781325
4.8 0.9547166799680766
5.0 0.9532721468475658
5.2 0.9518595371109337
5.4 0.9502713487629688
5.6 0.9486671987230646
5.8 0.9471827613727055
6.0 0.9458419792498005
6.2 0.944365522745411
6.4 0.9427374301675978
6.6 0.9412370311252992
6.8 0.9398962490023942
7.0 0.9383320031923383
7.2 0.9367996807661612
7.4 0.9352992817238628
7.6 0.9337669592976856
7.8 0.9323782920989625
8.0 0.9309976057462092
8.2 0.9295131683958499
8.4 0.9280047885075818
8.6 0.9266799680766161
8.8 0.9251556264964086
9.0 0.9238068635275338
9.2 0.9223623304070232
9.4 0.9209736632083001
9.6 0.9196887470071827
9.8 0.918244213886672
10.0 0.9169433359936153
10.2 0.915562649640862
10.4 0.9143016759776537
10.6 0.9128332003192338
10.8 0.9112609736632084
11.0 0.9099122106943337
11.2 0.9084357541899442
11.4 0.9070391061452514
11.6 0.9055945730247406
11.8 0.9042777334397446
12.0 0.9028172386272945
12.2 0.9015802075019953
12.4 0.9002154828411811
12.6 0.8989305666400638
12.8 0.8976296887470072
13.0 0.8960654429369513
13.2 0.8948443735035915
13.4 0.8935594573024741
13.6 0.8923463687150839
13.8 0.8908778930566641
14.0 0.8894732641660016
14.2 0.8882202713487629
14.4 0.8868715083798883
14.6 0.8856424581005586
14.8 0.8842617717478052
15.0 0.8827214684756584
15.2 0.8814764565043894
15.4 0.8801675977653631
15.6 0.8788507581803671
15.8 0.8775897845171587
16.0 0.8763048683160415
16.2 0.8749082202713488
16.4 0.8735674381484437
16.6 0.872170790103751
16.8 0.8708619313647246
17.0 0.8693056664006384
17.2 0.8680606544293695
17.4 0.8668156424581005
17.6 0.8654349561053472
17.8 0.86390263367917
18.0 0.8625219473264165
18.2 0.8610774142059059
18.4 0.8597446129289704
18.6 0.8582841181165203
18.8 0.8570391061452515
19.0 0.855706304868316
19.2 0.8542777334397447
19.4 0.8529130087789305
19.6 0.8515802075019953
19.8 0.8501276935355148
20.0 0.8486831604150039
20.2 0.8473982442138867
20.4 0.8459936153232244
20.6 0.8447725458898643
20.8 0.8434956105347168
21.0 0.8420111731843575
21.2 0.8406624102154828
21.4 0.839584996009577
21.6 0.8381803671189146
21.8 0.8369433359936153
22.0 0.8354269752593776
22.2 0.8340143655227454
22.4 0.8326017557861134
22.6 0.831197126895451
22.8 0.829976057462091
23.0 0.8286193136472465
23.2 0.8272466081404629
23.4 0.8260335195530726
23.6 0.8245570630486831
23.8 0.8231843575418994
24.0 0.8218994413407822
24.2 0.8205426975259377
24.4 0.8192338387869114
24.6 0.8178930566640064
24.8 0.816488427773344
25.0 0.8151157222665603
25.2 0.8136632083000798
25.4 0.8122745411013567
25.6 0.8108379888268157
25.8 0.8094413407821228
26.0 0.8079249800478852
26.2 0.8067278531524341
26.4 0.8052114924181963
26.6 0.8040223463687152
26.8 0.8027454110135674
27.0 0.8014924181963288
27.2 0.7999920191540304
27.4 0.7986113328012769
27.6 0.7972146847565843
27.8 0.7958260175578612
28.0 0.7946129289704709
28.2 0.7932482043096569
28.4 0.7917637669592977
28.6 0.7903830806065443
28.8 0.7890901835594574
29.0 0.7877254588986433
29.2 0.7864086193136473
29.4 0.7849880287310456
29.6 0.7836312849162012
29.8 0.7823862729449321
30.0 0.7809816440542697
30.2 0.7794732641660016
30.4 0.7781324820430966
30.6 0.7767517956903431
30.8 0.7753232242617717
31.0 0.7740462889066241
31.2 0.7725937749401436
31.4 0.7711252992817239
31.6 0.7695690343176377
31.8 0.7683240223463688
32.0 0.7670630486831604
32.2 0.7656264964086194
32.4 0.7641021548284118
32.6 0.7626496408619313
32.8 0.7612450119712689
33.0 0.7598164405426975
33.2 0.7584357541899442
33.4 0.7570790103750997
33.6 0.7556584197924979
33.8 0.754365522745411
34.0 0.7529848363926577
34.2 0.751660015961692
34.4 0.7502314445331205
34.6 0.7488188347964885
34.8 0.7474940143655228
35.0 0.7461532322426178
35.2 0.7447885075818037
35.4 0.7432881085395051
35.6 0.7420590582601756
35.8 0.7406384676775738
36.0 0.7393774940143655
36.2 0.7379968076616121
36.4 0.7363926576217079
36.6 0.7350598563447726
36.8 0.7335674381484438
37.0 0.7322984836392658
37.2 0.7309497206703911
37.4 0.7295291300877893
37.6 0.7282043096568236
37.8 0.7267996807661612
38.0 0.7254269752593775
38.2 0.7240143655227455
38.4 0.7226895450917797
38.6 0.721316839584996
38.8 0.7198563447725459
39.0 0.7183878691141261
39.2 0.7169752593774941
39.4 0.7156025538707103
39.6 0.7141420590582602
39.8 0.7127693535514764
40.0 0.7115482841181165
40.2 0.7101915403032721
40.4 0.7087071029529131
40.6 0.7074461292897047
40.8 0.706001596169194
41.0 0.7046687948922586
41.2 0.7033120510774142
41.4 0.702027134876297
41.6 0.7006304868316042
41.8 0.6992817238627295
42.0 0.6979808459696728
42.2 0.6964964086193136
42.4 0.6950359138068636
42.6 0.6934716679968076
42.8 0.6920191540303271
43.0 0.6907262569832402
43.2 0.6892178770949721
43.4 0.6876217079010375
43.6 0.6863288108539506
43.8 0.6849561053471668
44.0 0.6836312849162012
44.2 0.6822346368715084
44.4 0.680806065442937
44.6 0.6795450917797287
44.8 0.6782043096568237
45.0 0.6767039106145252
45.2 0.6753232242617717
45.4 0.673830806065443
45.6 0.6726017557861134
45.8 0.671197126895451
46.0 0.669976057462091
46.2 0.6685794094173982
46.4 0.6671109337589785
46.6 0.6657462090981645
46.8 0.6644852354349561
47.0 0.6631364724660814
47.2 0.6619712689545092
47.4 0.6605905826017557
47.6 0.6591859537110933
47.8 0.6580047885075818
48.0 0.6567438148443735
48.2 0.6552513966480447
48.4 0.6537988826815642
48.6 0.6522825219473265
48.8 0.650925778132482
49.0 0.6495690343176377
49.2 0.6483958499600958
49.4 0.6470630486831603
49.6 0.6458579409417398
49.8 0.6443495610534717
50.0 0.6431045490822026
50.2 0.6417158818834797
50.4 0.6402952913008779
50.6 0.6391380686352753
50.8 0.637757382282522
51.0 0.6364405426975259
51.2 0.6350598563447726
51.4 0.6335195530726258
51.6 0.6320111731843575
51.8 0.6307501995211492
52.0 0.6294413407821229
52.2 0.6280686352753392
52.4 0.6266560255387071
52.6 0.6253152434158021
52.8 0.6239345570630487
53.0 0.622633679169992
53.2 0.6212290502793296
53.4 0.6198324022346369
53.6 0.6185075818036712
53.8 0.6171987230646448
54.0 0.615977653631285
54.2 0.6147486033519552
54.4 0.6133519553072626
54.6 0.6119952114924182
54.8 0.6106863527533918
55.0 0.6094173982442139
55.2 0.6081803671189145
55.4 0.6069592976855547
55.6 0.6054349561053471
55.8 0.6041420590582601
56.0 0.6027134876296888
56.2 0.6014445331205107
56.4 0.6001835594573025
56.6 0.5988747007182762
56.8 0.5976057462090981
57.0 0.5963367916999203
57.2 0.5950438946528331
57.4 0.5937190742218675
57.6 0.5924181963288109
57.8 0.5910774142059059
58.0 0.5898643256185155
58.2 0.5887230646448524
58.4 0.5875658419792498
58.6 0.5861133280127694
58.8 0.584828411811652
59.0 0.5836392657621708
59.2 0.5822027134876298
59.4 0.5808459696727852
59.6 0.5797047086991222
59.8 0.5783798882681563
60.0 0.5771827613727055
60.2 0.5759297685554668
60.4 0.5746608140462889
60.6 0.5734477254588987
60.8 0.572218675179569
61.0 0.5709577015163607
61.2 0.5695929768555467
61.4 0.5682761372705507
61.6 0.5670630486831604
61.8 0.565538707102953
62.0 0.564437350359138
62.2 0.5632801276935355
62.4 0.5618435754189944
62.6 0.5607661612130886
62.8 0.5595770151636074
63.0 0.5582601755786114
63.2 0.556975259377494
63.4 0.5557541899441341
63.6 0.554437350359138
63.8 0.5532561851556266
64.0 0.5520271348762968
64.2 0.5506703910614525
64.4 0.5494014365522745
64.6 0.5483080606544294
64.8 0.546951316839585
65.0 0.5456743814844374
65.2 0.5443974461292896
65.4 0.543072625698324
65.6 0.5418834796488428
65.8 0.5406065442936951
66.0 0.5392817238627294
66.2 0.5380446927374302
66.4 0.5367757382282522
66.6 0.5354110135674381
66.8 0.5343735035913807
67.0 0.5332003192338388
67.2 0.5317717478052674
67.4 0.5304469273743017
67.6 0.5292178770949721
67.8 0.527853152434158
68.0 0.5265921787709498
68.2 0.5256264964086194
68.4 0.5243335993615323
68.6 0.523120510774142
68.8 0.5219553072625698
69.0 0.5206065442936951
69.2 0.5194333599361532
69.4 0.5181165203511572
69.6 0.5170311252992817
69.8 0.5158579409417399
70.0 0.5147406225059856
70.2 0.5135115722266561
70.4 0.5123064644852354
70.6 0.5111652035115722
70.8 0.5100159616919393
71.0 0.5086911412609737
71.2 0.5074940143655228
71.4 0.5063128491620111
71.6 0.5050917797286513
71.8 0.503950518754988
72.0 0.5024740622505985
72.2 0.5011811652035116
72.4 0.4999042298483639
72.6 0.49875498802873103
72.8 0.4974541101356744
73.0 0.4962809257781325
73.2 0.4950039904229848
73.4 0.4937669592976856
73.6 0.4926177174780527
73.8 0.49138866719872304
74.0 0.4901276935355148
74.2 0.48892258579409414
74.4 0.4876137270550679
74.6 0.4864485235434956
74.8 0.48531524341580207
75.0 0.4842857142857143
75.2 0.4830965682362331
75.4 0.4818675179569034
75.6 0.48057462090981645
75.8 0.4794333599361532
76.0 0.478268156424581
76.2 0.4771827613727055
76.4 0.4760335195530726
76.6 0.4748603351955307
76.8 0.4736392657621708
77.0 0.47256185155626496
77.2 0.4715003990422985
77.4 0.47028731045490824
77.6 0.469098164405427
77.8 0.467829209896249
78.0 0.46680766161213083
78.2 0.46557861133280126
78.4 0.4645011971268954
78.6 0.46355945730247405
78.8 0.46227454110135674
79.0 0.46102952913008777
79.2 0.45977653631284915
79.4 0.4586193136472466
79.6 0.45759776536312846
79.8 0.456536312849162
80.0 0.45529130087789305
80.2 0.4542537909018356
80.4 0.453072625698324
80.6 0.45192338387869113
80.8 0.45080606544293694
81.0 0.44956105347166797
81.2 0.44840383080606544
81.4 0.44722266560255386
81.6 0.4460415003990423
81.8 0.4449162011173184
82.0 0.4436472466081405
82.2 0.4425458898643256
82.4 0.4414684756584198
82.6 0.44029529130087786
82.8 0.4391380686352753
83.0 0.43794094173982445
83.2 0.4369832402234637
83.4 0.4358339984038308
83.6 0.43449321628092574
83.8 0.43350359138068634
84.0 0.43245810055865924
84.2 0.43137270550678375
84.4 0.43000798084596964
84.6 0.4288826815642458
84.8 0.4278371907422187
85.0 0.4266320830007981
85.2 0.4255147645650439
85.4 0.4243495610534717
85.6 0.42324022346368717
85.8 0.4221308858739026
86.0 0.4209497206703911
86.2 0.4198324022346369
86.4 0.4187390263367917
86.6 0.41758978451715884
86.8 0.4163367916999202
87.0 0.4152833200319234
87.2 0.41415802075019953
87.4 0.4131284916201118
87.6 0.4121229050279329
87.8 0.4108858739026337
88.0 0.40977653631284916
88.2 0.40885873902633674
88.4 0.4077733439744613
88.6 0.4065442936951317
88.8 0.40541101356743814
89.0 0.4041420590582602
89.2 0.4029688747007183
89.4 0.401803671189146
89.6 0.40060654429369513
89.8 0.399561053471668
90.0 0.39852354349561053
90.2 0.3974301675977654
90.4 0.3964804469273743
90.6 0.3953152434158021
90.8 0.3942298483639266
91.0 0.3931364724660814
91.2 0.39207501995211497
91.4 0.3907980845969673
91.6 0.38972865123703115
91.8 0.3886991221069433
92.0 0.38750997605746207
92.2 0.3864405426975259
92.4 0.38537110933758983
92.6 0.384317637669593
92.8 0.3833280127693536
93.0 0.3822106943335994
93.2 0.3811173184357542
93.4 0.38008778930566645
93.6 0.37898643256185155
93.8 0.37786113328012766
94.0 0.3766320830007981
94.2 0.37564245810055863
94.4 0.3746528332003192
94.6 0.3735275339185954
94.8 0.37245810055865924
95.0 0.37129289704708696
95.2 0.37034317637669595
95.4 0.3691859537110934
95.6 0.3679169992019154
95.8 0.36696727853152433
96.0 0.3659616919393456
96.2 0.36479648842777335
96.4 0.3637031125299282
96.6 0.3624660814046289
96.8 0.36143655227454113
97.0 0.3604469273743017
97.2 0.3593934557063049
97.4 0.3584357541899441
97.6 0.35739824421388666
97.8 0.35613727055067834
98.0 0.355147645650439
98.2 0.3542378292098962
98.4 0.3531923383878691
98.6 0.3521149241819633
98.8 0.35090981644054264
99.0 0.3498164405426975
99.2 0.34874700718276136
99.4 0.3477174780526736
99.6 0.3467837190742219
99.8 0.3458180367118915
100.0 0.3446927374301676
100.2 0.34374301675977653
100.4 0.34262569832402234
100.6 0.34147645650438946
100.8 0.34035913806863527
101.0 0.3391141260973663
101.2 0.3379090183559457
101.4 0.3367677573822825
101.6 0.33592976855546686
101.8 0.3349880287310455
102.0 0.33375897845171587
102.2 0.33265762170790103
102.4 0.3316121308858739
102.6 0.3306703910614525
102.8 0.3295291300877893
103.0 0.3285075818036712
103.2 0.3273343974461293
103.4 0.3261851556264964
103.6 0.32507581803671187
103.8 0.32386272944932165
104.0 0.32295291300877893
104.2 0.321755786113328
104.4 0.32072625698324025
104.6 0.3197366320830008
104.8 0.31875498802873103
105.0 0.3177494014365523
105.2 0.3166560255387071
105.4 0.31564245810055863
105.6 0.3145490822027135
105.8 0.31344772545889865
106.0 0.3123623304070231
106.2 0.31134078212290506
106.4 0.31027134876296886
106.6 0.3089784517158819
106.8 0.30802075019952113
107.0 0.30694333599361534
107.2 0.30592178770949724
107.4 0.3048922585794094
107.6 0.303854748603352
107.8 0.30277733439744614
108.0 0.3015083798882682
108.2 0.3004229848363926
108.4 0.2992737430167598
108.6 0.29825219473264164
108.8 0.29727055067837194
109.0 0.29616919393455704
109.2 0.2951077414205906
109.4 0.2940782122905028
109.6 0.293024740622506
109.8 0.2918435754189944
110.0 0.29083000798084596
110.2 0.2898244213886672
110.4 0.28858739026336794
110.6 0.28737430167597766
110.8 0.28650438946528334
111.0 0.28541101356743814
111.2 0.2844293695131684
111.4 0.283511572226656
111.6 0.28229848363926574
111.8 0.281292897047087
112.0 0.28031125299281723
112.2 0.27922585794094174
112.4 0.2780845969672785
112.6 0.276951316839585
112.8 0.2759537110933759
113.0 0.27487629688747006
113.2 0.27385474860335196
113.4 0.2727773343974461
113.6 0.27177174780526736
113.8 0.2709417398244214
114.0 0.2696967278531524
114.2 0.2685873902633679
114.4 0.2675977653631285
114.6 0.26660814046288905
114.8 0.26558659217877095
115.0 0.26455706304868315
115.2 0.26349561053471665
115.4 0.26241021548284116
115.6 0.2614924181963288
115.8 0.26046288906624104
116.0 0.25948922585794093
116.2 0.2583639265762171
116.4 0.25735035913806864
116.6 0.25616919393455706
116.8 0.25517158818834795
117.0 0.2541979249800479
117.2 0.25312051077414205
117.4 0.2520111731843575
117.6 0.2508379888268156
117.8 0.24966480446927375
118.0 0.24865921787709497
118.2 0.24766959297685556
118.4 0.24652833200319232
118.6 0.24550678371907422
118.8 0.24442138866719873
119.0 0.2434317637669593
119.2 0.2422825219473264
119.4 0.24104549082202711
119.6 0.24011971268954507
119.8 0.23896249002394254
120.0 0.23790901835594574
120.2 0.2369114126097366
120.4 0.23581803671189147
120.6 0.23476456504389465
120.8 0.23394253790901837
121.0 0.23280127693535516
121.2 0.23171588188347964
121.4 0.23059856344772545
121.6 0.22948124501197129
121.8 0.22845171588188345
122.0 0.22739824421388669
122.2 0.22643256185155625
122.4 0.22544293695131684
122.6 0.22444533120510773
122.8 0.22351157222665602
123.0 0.22239425379090183
123.2 0.22124501197126897
123.4 0.22022346368715084
123.6 0.21924980047885076
123.8 0.21816440542697524
124.0 0.21707901037509977
124.2 0.21605746209098164
124.4 0.2151316839584996
124.6 0.21411013567438147
124.8 0.21312051077414207
125.0 0.21217877094972068
125.2 0.21123703112529926
125.4 0.21034317637669592
125.6 0.2094732641660016
125.8 0.20853950518754988
126.0 0.2075658419792498
126.2 0.20669592976855547
126.4 0.20576217079010375
126.6 0.20463687150837986
126.8 0.2037270550678372
127.0 0.20274541101356744
127.2 0.20171588188347964
127.4 0.20083798882681564
127.6 0.19995211492418197
127.8 0.1989704708699122
128.0 0.19795690343176378
128.2 0.1970071827613727
128.4 0.19605746209098165
128.6 0.19501995211492418
128.8 0.19414205905826015
129.0 0.19324022346368713
129.2 0.1923224261771748
129.4 0.19135674381484438
129.6 0.19050279329608938
129.8 0.18956105347166802
130.0 0.1886193136472466
130.2 0.1876855546687949
130.4 0.18671987230646447
130.6 0.1858419792498005
130.8 0.18499600957701517
131.0 0.18403830806065444
131.2 0.18314445331205106
131.4 0.18227454110135674
131.6 0.1815003990422985
131.8 0.18046288906624103
132.0 0.1795291300877893
132.2 0.1786432561851556
132.4 0.17782122905027933
132.6 0.17687948922585794
132.8 0.1759537110933759
133.0 0.17509177972865125
133.2 0.174341580207502
133.4 0.1734317637669593
133.6 0.17258579409417396
133.8 0.1717398244213887
134.0 0.17086991221069434
134.2 0.17012769353551477
134.4 0.16932960893854748
134.6 0.1685075818036712
134.8 0.16773343974461294
135.0 0.1667996807661612
135.2 0.16588188347964883
135.4 0.16514764565043893
135.6 0.16432561851556265
135.8 0.16359138068635276
136.0 0.16292098962490023
136.2 0.16216280925778132
136.4 0.16133280127693536
136.6 0.16053471667996808
136.8 0.1597047086991221
137.0 0.1590023942537909
137.2 0.15826017557861133
137.4 0.1574780526735834
137.6 0.15664804469273744
137.8 0.1559457302474062
138.0 0.15512370311252993
138.2 0.15436552274541102
138.4 0.1535754189944134
138.6 0.15288906624102155
138.8 0.1519952114924182
139.0 0.15127693535514763
139.2 0.1506464485235435
139.4 0.14990422984836393
139.6 0.1492019154030327
139.8 0.1483878691141261
140.0 0.1475977653631285
140.2 0.14699122106943338
140.4 0.14625698324022346
140.6 0.1455387071029529
140.8 0.1447246608140463
141.0 0.14399840383080606
141.2 0.14341580207501994
141.4 0.14280925778132483
141.6 0.14204309656823624
141.8 0.14135674381484437
142.0 0.14066241021548284
142.2 0.13993615323224262
142.4 0.13928172386272944
142.6 0.13853152434158023
142.8 0.13794892258579408
143.0 0.13719074221867517
143.2 0.13655227454110136
143.4 0.13599361532322427
143.6 0.1352992817238627
143.8 0.13468475658419793
144.0 0.1341340782122905
144.2 0.13350359138068635
144.4 0.13280925778132482
144.6 0.13216280925778132
144.8 0.1316759776536313
145.0 0.13106145251396648
145.2 0.13047885075818036
145.4 0.1297924980047885
145.6 0.1291141260973663
145.8 0.12849960095770152
146.0 0.12780526735833997
146.2 0.12729449321628092
146.4 0.12673583399840382
146.6 0.12613727055067836
146.8 0.1255945730247406
147.0 0.12503591380686352
147.2 0.12440542697525939
147.4 0.1238148443735036
147.6 0.12322426177174779
147.8 0.12263367916999203
148.0 0.12213088587390264
148.2 0.12155626496408618
148.4 0.1209098164405427
148.6 0.12029529130087789
148.8 0.11978451715881883
149.0 0.11929768555466878
149.2 0.11881085395051877
149.4 0.11828411811652036
149.6 0.11770949720670391
149.8 0.11713487629688746
150.0 0.11674381484437352
150.2 0.11614525139664805
150.4 0.11561851556264964
150.6 0.11516360734237828
