\tau/\tau_{d} vs n_{unpack}/N
0.0 1.0
0.2 0.9995372750642673
0.4 0.9973007712082262
0.6 0.9952270779777207
0.8 0.9933419023136247
1.0 0.9913453299057412
1.2 0.9895029991431019
1.4 0.9877035132819195
1.6 0.9857497857754928
1.8 0.9839074550128535
2.0 0.982159383033419
2.2 0.9805141388174807
2.4 0.9789717223650386
2.6 0.9775407026563839
2.8 0.9758954584404457
3.0 0.9745501285347044
3.2 0.9732219365895459
3.4 0.9717052270779777
3.6 0.9703856041131105
3.8 0.9689717223650386
4.0 0.9674635818337617
4.2 0.9661096829477291
4.4 0.964764353041988
4.6 0.9635389888603256
4.8 0.9621936589545844
5.0 0.961165381319623
5.2 0.9599571550985432
5.4 0.9589460154241646
5.6 0.9577463581833762
5.8 0.9565552699228792
6.0 0.9554670094258784
6.2 0.954318766066838
6.4 0.9531705227077978
6.6 0.9519537275064267
6.8 0.9507969151670952
7.0 0.9497343616109682
7.2 0.9486975149957155
7.4 0.9476349614395887
7.6 0.9466066838046272
7.8 0.9454413024850042
8.0 0.9443873179091687
8.2 0.9435047129391603
8.4 0.9426906598114825
8.6 0.9415167095115682
8.8 0.9404541559554412
9.0 0.9394173093401885
9.2 0.9383976006855184
9.4 0.9374635818337618
9.6 0.9366323907455013
9.8 0.9356383890317052
10.0 0.934815766923736
10.2 0.9339417309340189
10.4 0.9329220222793488
10.6 0.9320479862896315
10.8 0.9309597257926306
11.0 0.9300771208226222
11.2 0.9291088260497001
11.4 0.9280548414738646
11.6 0.9272836332476436
11.8 0.9264695801199657
12.0 0.9255955441302486
12.2 0.924764353041988
12.4 0.9237617823479006
12.6 0.9229734361610968
12.8 0.922082262210797
13.0 0.9213367609254499
13.2 0.9205312767780635
13.4 0.9196143958868894
13.6 0.9188688946015424
13.8 0.918063410454156
14.0 0.9172493573264782
14.2 0.9164267352185089
14.4 0.9155526992287918
14.6 0.9147043701799485
14.8 0.9138560411311054
15.0 0.9130505569837188
15.2 0.9119965724078835
15.4 0.9113196229648672
15.6 0.9104627249357327
15.8 0.9097000856898029
16.0 0.9090574121679521
16.2 0.9082604970008569
16.4 0.9074721508140532
16.6 0.9068380462724935
16.8 0.906152527849186
17.0 0.9052956298200514
17.2 0.9045329905741216
17.4 0.9037532133676092
17.6 0.90293059125964
17.8 0.9022193658954585
18.0 0.9014053127677806
18.2 0.9008568980291345
18.4 0.9001199657240788
18.6 0.8994001713796058
18.8 0.898611825192802
19.0 0.8978320479862896
19.2 0.8971893744644387
19.4 0.8964181662382177
19.6 0.8955698371893744
19.8 0.8948329048843188
20.0 0.8941131105398458
20.2 0.8933333333333333
20.4 0.892630676949443
20.6 0.8920394173093402
20.8 0.891113967437875
21.0 0.8902913453299057
21.2 0.8896229648671807
21.4 0.8890145672664953
21.6 0.8884233076263925
21.8 0.8876606683804628
22.0 0.8869494430162811
22.2 0.8862382176520994
22.4 0.8853984575835476
22.6 0.8846786632390746
22.8 0.8839160239931448
23.0 0.8831790916880891
23.2 0.8824850042844902
23.4 0.881713796058269
23.6 0.88101970865467
23.8 0.8803770351328193
24.0 0.8795886889460154
24.2 0.8788431876606684
24.4 0.8780634104541559
24.6 0.8774293059125964
24.8 0.8767609254498714
25.0 0.875955441302485
25.2 0.8752784918594688
25.4 0.8745072836332477
25.6 0.8737446443873179
25.8 0.8729562982005141
26.0 0.8723136246786631
26.2 0.871688089117395
26.4 0.870968294772922
26.6 0.8703427592116537
26.8 0.869725792630677
27.0 0.8689203084832904
27.2 0.8682690659811482
27.4 0.8676520994001714
27.6 0.8670437017994859
27.8 0.8663924592973435
28.0 0.8657240788346187
28.2 0.8650556983718937
28.4 0.8643616109682948
28.6 0.8636246786632391
28.8 0.8629562982005141
29.0 0.862407883461868
29.2 0.8617309340188518
29.4 0.8611053984575835
29.6 0.860471293916024
29.8 0.8598200514138817
30.0 0.8591173950299914
30.2 0.8583718937446444
30.4 0.8577377892030849
30.6 0.8570951156812339
30.8 0.8565381319622964
31.0 0.8559383033419024
31.2 0.8552270779777207
31.4 0.8545758354755785
31.6 0.8540274207369323
31.8 0.8532990574121679
32.0 0.8526563838903171
32.2 0.852082262210797
32.4 0.8514995715509854
32.6 0.8508397600685518
32.8 0.8501028277634961
33.0 0.8493401885175664
33.2 0.8487403598971723
33.4 0.8480462724935732
33.6 0.8472236503856041
33.8 0.8464952870608397
34.0 0.845955441302485
34.2 0.8453813196229649
34.4 0.8448157669237361
34.6 0.8441730934018853
34.8 0.843598971722365
35.0 0.842879177377892
35.2 0.8423393316195373
35.4 0.8417737789203085
35.6 0.8411482433590404
35.8 0.8404627249357327
36.0 0.839948586118252
36.2 0.8393144815766924
36.4 0.8386632390745501
36.6 0.8379605826906598
36.8 0.837395029991431
37.0 0.8366666666666667
37.2 0.8361610968294773
37.4 0.8355612682090832
37.6 0.8348928877463583
37.8 0.8341988003427592
38.0 0.8334875749785776
38.2 0.8328963153384747
38.4 0.8323479005998285
38.6 0.8317052270779777
38.8 0.8310197086546701
39.0 0.8303684661525278
39.2 0.8297514995715509
39.4 0.8290745501285347
39.6 0.8284490145672665
39.8 0.827840616966581
40.0 0.8270351328191946
40.2 0.8264952870608397
40.4 0.8256983718937447
40.6 0.8251071122536418
40.8 0.824490145672665
41.0 0.823847472150814
41.2 0.8231533847472151
41.4 0.8224850042844902
41.6 0.8217480719794346
41.8 0.8211053984575836
42.0 0.82044558697515
42.2 0.8198971722365038
42.4 0.8192887746358183
42.6 0.8186889460154242
42.8 0.8179263067694944
43.0 0.817146529562982
43.2 0.8165381319622965
43.4 0.8159125964010283
43.6 0.8153384747215081
43.8 0.8146615252784919
44.0 0.8139760068551842
44.2 0.8132904884318767
44.4 0.812630676949443
44.6 0.8120308483290488
44.8 0.8113796058269067
45.0 0.8107369323050557
45.2 0.8100771208226222
45.4 0.80942587832048
45.6 0.8086803770351328
45.8 0.808037703513282
46.0 0.8074635818337618
46.2 0.8068894601542417
46.4 0.8064095972579263
46.6 0.805878320479863
46.8 0.8053041988003428
47.0 0.804790059982862
47.2 0.8041559554413026
47.4 0.8034447300771208
47.6 0.8028620394173093
47.8 0.8022022279348758
48.0 0.8016795201371036
48.2 0.8010368466152528
48.4 0.8004027420736932
48.6 0.7998286203941731
48.8 0.7992630676949443
49.0 0.7985347043701799
49.2 0.7979605826906598
49.4 0.7973007712082263
49.6 0.7967009425878321
49.8 0.7958611825192802
50.0 0.7952870608397601
50.2 0.7946615252784919
50.4 0.7940359897172236
50.6 0.7935132819194516
50.8 0.7928963153384747
51.0 0.7922707797772065
51.2 0.7917566409597258
51.4 0.7911225364181662
51.6 0.7905141388174808
51.8 0.7899314481576692
52.0 0.7893059125964009
52.2 0.7886203941730934
52.4 0.7881491002570694
52.6 0.7876863753213368
52.8 0.7870694087403599
53.0 0.7864610111396744
53.2 0.7858611825192802
53.4 0.7852013710368466
53.6 0.7844815766923736
53.8 0.7838903170522709
54.0 0.7832562125107113
54.2 0.7827077977720651
54.4 0.7821850899742931
54.6 0.7816281062553556
54.8 0.7808911739502998
55.0 0.7803427592116537
55.2 0.7796229648671807
55.4 0.7790231362467867
55.6 0.7785347043701799
55.8 0.777917737789203
56.0 0.7772750642673522
56.2 0.7765895458440446
56.4 0.7760068551842331
56.6 0.7753641816623822
56.8 0.7748586118251929
57.0 0.7742502142245072
57.2 0.7736161096829477
57.4 0.7730676949443016
57.6 0.7723307626392458
57.8 0.7717566409597257
58.0 0.7711053984575835
58.2 0.7705569837189374
58.4 0.7697600685518424
58.6 0.7692030848329048
58.8 0.768560411311054
59.0 0.7679434447300771
59.2 0.7674378748928877
59.4 0.7668294772922022
59.6 0.7662810625535562
59.8 0.7657412167952014
60.0 0.7652699228791774
60.2 0.7646015424164524
60.4 0.7639417309340188
60.6 0.763273350471294
60.8 0.7627592116538132
61.0 0.7622622107969151
61.2 0.7616452442159383
61.4 0.7608654670094259
61.6 0.760248500428449
61.8 0.7596915167095116
62.0 0.7591602399314482
62.2 0.7585432733504713
62.4 0.7579091688089118
62.6 0.7573007712082263
62.8 0.7566923736075407
63.0 0.7561268209083118
63.2 0.7555526992287918
63.4 0.7549185946872322
63.6 0.7543616109682948
63.8 0.753847472150814
64.0 0.7532133676092545
64.2 0.7526906598114824
64.4 0.7520308483290488
64.6 0.7514053127677807
64.8 0.7508140531276779
65.0 0.7501885175664096
65.2 0.7496229648671807
65.4 0.7489974293059126
65.6 0.7484832904884319
65.8 0.7478834618680377
66.0 0.7473093401885176
66.2 0.746726649528706
66.4 0.7460925449871465
66.6 0.7454670094258783
66.8 0.7448928877463582
67.0 0.7442159383033419
67.2 0.7435389888603257
67.4 0.7428106255355612
67.6 0.7421936589545843
67.8 0.7416195372750642
68.0 0.7410796915167096
68.2 0.7405398457583547
68.4 0.7398628963153385
68.6 0.7393401885175664
68.8 0.7387060839760069
69.0 0.738166238217652
69.2 0.7376006855184234
69.4 0.7370608397600685
69.6 0.736401028277635
69.8 0.7358954584404457
70.0 0.7352527849185947
70.2 0.7346443873179092
70.4 0.7340874035989716
70.6 0.7335047129391603
70.8 0.7328534704370181
71.0 0.7322793487574978
71.2 0.7317052270779777
71.4 0.7310968294772923
71.6 0.7306512425021423
71.8 0.73
72.0 0.7293658954584404
72.2 0.7286461011139674
72.4 0.7281319622964867
72.6 0.7275407026563839
72.8 0.7270094258783204
73.0 0.726401028277635
73.2 0.7257926306769494
73.4 0.7253213367609255
73.6 0.7247729220222793
73.8 0.72426735218509
74.0 0.7236846615252784
74.2 0.7230248500428449
74.4 0.7224592973436161
74.6 0.7218508997429306
74.8 0.7212596401028277
75.0 0.720668380462725
75.2 0.7201285347043702
75.4 0.7194944301628107
75.6 0.7188774635818338
75.8 0.7182090831191088
76.0 0.7176863753213368
76.2 0.7171036846615253
76.4 0.7165124250214224
76.6 0.7159640102827765
76.8 0.7153813196229649
77.0 0.7146958011996573
77.2 0.7140874035989717
77.4 0.7134875749785776
77.6 0.7128534704370181
77.8 0.7123821765209939
78.0 0.7117823479005999
78.2 0.711165381319623
78.4 0.7105484147386462
78.6 0.7099571550985432
78.8 0.7094687232219365
79.0 0.7088774635818338
79.2 0.7081833761782348
79.4 0.7075235646958012
79.6 0.7069837189374465
79.8 0.7065467009425878
80.0 0.7059725792630677
80.2 0.7053556126820908
80.4 0.7048586118251928
80.6 0.7043016281062553
80.8 0.7037275064267352
81.0 0.7032476435304198
81.2 0.7025964010282776
81.4 0.7020222793487575
81.6 0.7015338474721509
81.8 0.7008654670094259
82.0 0.700325621251071
82.2 0.6997000856898029
82.4 0.6991431019708655
82.6 0.6986546700942589
82.8 0.6980976863753213
83.0 0.6974635818337618
83.2 0.6968466152527849
83.4 0.6962810625535562
83.6 0.6956726649528706
83.8 0.6951328191945159
84.0 0.6944987146529563
84.2 0.6938903170522708
84.4 0.6934190231362467
84.6 0.6928363324764354
84.8 0.6923650385604112
85.0 0.6917223650385604
85.2 0.691242502142245
85.4 0.690719794344473
85.6 0.6900771208226222
85.8 0.6895372750642673
86.0 0.6889117395029991
86.2 0.6883290488431877
86.4 0.6878234790059983
86.6 0.6872579263067695
86.8 0.6867694944301629
87.0 0.6861953727506426
87.2 0.6856041131105398
87.4 0.6850899742930591
87.6 0.6845844044558698
87.8 0.684044558697515
88.0 0.6834875749785776
88.2 0.6828449014567266
88.4 0.6822707797772065
88.6 0.6817480719794345
88.8 0.6812082262210797
89.0 0.6805741216795201
89.2 0.6800856898029134
89.4 0.6793916023993145
89.6 0.6789203084832904
89.8 0.6783204798628963
90.0 0.6777292202227935
90.2 0.677266495287061
90.4 0.6766066838046272
90.6 0.6760239931448158
90.8 0.675432733504713
91.0 0.6747986289631533
91.2 0.6743273350471294
91.4 0.6737275064267352
91.6 0.6732047986289632
91.8 0.6725792630676949
92.0 0.6720394173093402
92.2 0.6716195372750643
92.4 0.6710882604970009
92.6 0.6704798628963153
92.8 0.6699742930591259
93.0 0.6693573264781492
93.2 0.6687146529562982
93.4 0.668114824335904
93.6 0.6677120822622108
93.8 0.6671465295629819
94.0 0.666598114824336
94.2 0.6660582690659811
94.4 0.6655355612682091
94.6 0.6649357326478149
94.8 0.664318766066838
95.0 0.663796058269066
95.2 0.6631619537275064
95.4 0.6625364181662383
95.6 0.6619194515852613
95.8 0.6613710368466152
96.0 0.6608654670094259
96.2 0.6602827763496144
96.4 0.6597429305912597
96.6 0.6592459297343616
96.8 0.658757497857755
97.0 0.6581319622964866
97.2 0.6575492716366752
97.4 0.6570608397600686
97.6 0.6565381319622965
97.8 0.6559468723221937
98.0 0.6555184233076264
98.2 0.6550299914310197
98.4 0.6543530419880034
98.6 0.6537360754070265
98.8 0.6531876606683805
99.0 0.6526392459297344
99.2 0.6521165381319624
99.4 0.6516023993144816
99.6 0.6510539845758355
99.8 0.6505398457583547
100.0 0.6499742930591259
100.2 0.6494858611825193
100.4 0.6488089117395031
100.6 0.6482519280205655
100.8 0.6477292202227934
101.0 0.6471636675235647
101.2 0.6465724078834618
101.4 0.6459811482433591
101.6 0.6454498714652956
101.8 0.6450042844901457
102.0 0.6443873179091688
102.2 0.6438474721508141
102.4 0.6432562125107113
102.6 0.6428877463581835
102.8 0.6423136246786632
103.0 0.6417909168808912
103.2 0.6412767780634104
103.4 0.6405912596401028
103.6 0.6400599828620395
103.8 0.6394687232219366
104.0 0.6388688946015424
104.2 0.6382947729220223
104.4 0.6377035132819194
104.6 0.6370779777206512
104.8 0.6364781491002571
105.0 0.6360325621251071
105.2 0.6354413024850043
105.4 0.6349357326478149
105.6 0.6343359040274208
105.8 0.6337703513281919
106.0 0.6332047986289632
106.2 0.6326392459297344
106.4 0.6321508140531277
106.6 0.6314824335904027
106.8 0.6308997429305913
107.0 0.6303513281919452
107.2 0.6297343616109683
107.4 0.6291945158526135
107.6 0.6285689802913453
107.8 0.6281319622964867
108.0 0.6276006855184233
108.2 0.6270437017994859
108.4 0.6264353041988003
108.6 0.6259640102827764
108.8 0.6254413024850043
109.0 0.6248157669237361
109.2 0.6242330762639245
109.4 0.6237189374464439
109.6 0.6231191088260497
109.8 0.6225021422450728
110.0 0.6220479862896315
110.2 0.6215424164524421
110.4 0.6209854327335047
110.6 0.6202913453299057
110.8 0.6197429305912596
111.0 0.6192887746358183
111.2 0.6187146529562981
111.4 0.6181662382176522
111.6 0.617617823479006
111.8 0.617095115681234
112.0 0.6165895458440446
112.2 0.6160154241645244
112.4 0.6153898886032563
112.6 0.6149614395886889
112.8 0.6144473007712082
113.0 0.6138817480719794
113.2 0.6134190231362467
113.4 0.6128106255355612
113.6 0.6122622107969152
113.8 0.6117566409597258
114.0 0.611191088260497
114.2 0.6107712082262211
114.4 0.6101799485861182
114.6 0.6093830334190231
114.8 0.6088174807197944
115.0 0.6081748071979435
115.2 0.607617823479006
115.4 0.6070437017994859
115.6 0.6065809768637532
115.8 0.6059640102827764
116.0 0.6054070265638389
116.2 0.6048928877463582
116.4 0.6043187660668381
116.6 0.6036932305055699
116.8 0.6031705227077978
117.0 0.6026392459297344
117.2 0.6020308483290489
117.4 0.60146529562982
117.6 0.6010796915167095
117.8 0.6004970008568979
118.0 0.5999828620394173
118.2 0.5994344473007712
118.4 0.5989545844044559
118.6 0.5983890317052271
118.8 0.5978920308483291
119.0 0.5974293059125965
119.2 0.5968380462724936
119.4 0.5963581833761782
119.6 0.5957497857754928
119.8 0.5953384747215081
120.0 0.5948243359040274
120.2 0.594241645244216
120.4 0.5936503856041131
120.6 0.593076263924593
120.8 0.5925364181662381
121.0 0.5919023136246787
121.2 0.5915081405312768
121.4 0.5909854327335047
121.6 0.5904541559554413
121.8 0.5898371893744645
122.0 0.5892630676949443
122.2 0.5886289631533848
122.4 0.5880462724935732
122.6 0.5876092544987146
122.8 0.586975149957155
123.0 0.5864438731790917
123.2 0.5858954584404455
123.4 0.5853984575835476
123.6 0.5848329048843187
123.8 0.5844387317909169
124.0 0.5839160239931448
124.2 0.583299057412168
124.4 0.582630676949443
124.6 0.5820994001713796
124.8 0.5815681233933162
125.0 0.5810454155955441
125.2 0.5803856041131106
125.4 0.5797943444730077
125.6 0.5790916880891174
125.8 0.5786032562125107
126.0 0.5781062553556127
126.2 0.5774892887746358
126.4 0.5769408740359897
126.6 0.5762896315338475
126.8 0.5758526135389889
127.0 0.5753727506426736
127.2 0.5748586118251928
127.4 0.5743873179091689
127.6 0.5738560411311053
127.8 0.5733161953727507
128.0 0.5727849185946873
128.2 0.5722365038560411
128.4 0.5717137960582691
128.6 0.5711739502999142
128.8 0.5706426735218509
129.0 0.5700599828620394
129.2 0.5694772922022279
129.4 0.5690231362467866
129.6 0.5685518423307626
129.8 0.5680805484147387
130.0 0.5674892887746359
130.2 0.5668894601542417
130.4 0.5663667523564695
130.6 0.5659383033419023
130.8 0.5654327335047129
131.0 0.564815766923736
131.2 0.5642759211653813
131.4 0.5639588688946016
131.6 0.5632219365895458
131.8 0.5627677806341045
132.0 0.5622450728363325
132.2 0.5617823479005998
132.4 0.5612596401028278
132.6 0.5606855184233076
132.8 0.5601456726649529
133.0 0.5595544130248501
133.2 0.5589545844044559
133.4 0.5584661525278493
133.6 0.5579862896315338
133.8 0.5572836332476435
134.0 0.5567180805484147
134.2 0.5562553556126821
134.4 0.555706940874036
134.6 0.555209940017138
134.8 0.5546958011996572
135.0 0.5541730934018851
135.2 0.553744644387318
135.4 0.5530591259640103
135.6 0.5525021422450728
135.8 0.5520822622107969
136.0 0.5514995715509854
136.2 0.5510625535561268
136.4 0.5505569837189375
136.6 0.5501113967437875
136.8 0.5496229648671808
137.0 0.5489974293059126
137.2 0.5484490145672666
137.4 0.5477977720651243
137.6 0.5473093401885175
137.8 0.5467523564695802
138.0 0.5462724935732648
138.2 0.5457497857754927
138.4 0.545261353898886
138.6 0.5446700942587832
138.8 0.5441473864610111
139.0 0.5436846615252785
139.2 0.5431705227077978
139.4 0.5426563838903171
139.6 0.5421165381319623
139.8 0.5415081405312767
140.0 0.5410882604970009
140.2 0.5404541559554413
140.4 0.5398886032562126
140.6 0.5393487574978577
140.8 0.5388346186803771
141.0 0.5382776349614395
141.2 0.5377892030848329
141.4 0.5373350471293916
141.6 0.5367694944301629
141.8 0.5362125107112253
142.0 0.5357926306769495
142.2 0.5352870608397601
142.4 0.534790059982862
142.6 0.5342330762639246
142.8 0.5337103684661525
143.0 0.533101970865467
143.2 0.5325192802056555
143.4 0.5320137103684661
143.6 0.5315424164524422
143.8 0.5310025706940874
144.0 0.530497000856898
144.2 0.529974293059126
144.4 0.5294601542416452
144.6 0.5289717223650385
144.8 0.5284318766066838
145.0 0.5279434447300771
145.2 0.5274035989717223
145.4 0.5268209083119109
145.6 0.5263581833761782
145.8 0.5256640959725792
146.0 0.5251499571550986
146.2 0.524764353041988
146.4 0.5241302485004284
146.6 0.5236418166238218
146.8 0.5230591259640103
147.0 0.522604970008569
147.2 0.5220222793487576
147.4 0.5214824335904027
147.6 0.520942587832048
147.8 0.5203770351328192
148.0 0.5199314481576692
148.2 0.5194173093401885
148.4 0.5188603256212511
148.6 0.5183547557840616
148.8 0.5178834618680377
149.0 0.5174378748928877
149.2 0.5168894601542416
149.4 0.5164438731790917
149.6 0.5158783204798629
149.8 0.5153384747215081
150.0 0.5148757497857754
150.2 0.5143958868894601
150.4 0.5138131962296487
150.6 0.513324764353042
150.8 0.5128106255355612
151.0 0.5123393316195373
151.2 0.511885175664096
151.4 0.5114224507283633
151.6 0.5109511568123394
151.8 0.5103598971722365
152.0 0.5098371893744644
152.2 0.5094430162810625
152.4 0.5089974293059126
152.6 0.5084661525278492
