#\tau/\tau_{d} vs n_{pack}/N
0.0 0.0
0.2 0.0009706959706959707
0.4 0.0034432234432234432
0.6 0.005512820512820513
0.8 0.006996336996336996
1.0 0.008067765567765568
1.2 0.009175824175824175
1.4 0.010045787545787546
1.6 0.010961538461538462
1.8 0.011895604395604395
2.0 0.012637362637362638
2.2 0.013333333333333332
2.4 0.014267399267399268
2.6 0.015146520146520147
2.8 0.01584249084249084
3.0 0.016575091575091575
3.2 0.01748168498168498
3.4 0.01817765567765568
3.6 0.018873626373626374
3.8 0.01965201465201465
4.0 0.020338827838827837
4.2 0.021089743589743592
4.4 0.021767399267399266
4.6 0.02241758241758242
4.8 0.02312271062271062
5.0 0.023717948717948717
5.2 0.024285714285714285
5.4 0.024862637362637365
5.6 0.02554029304029304
5.8 0.026172161172161174
6.0 0.02671245421245421
6.2 0.02717948717948718
6.4 0.027774725274725274
6.6 0.028342490842490842
6.8 0.02899267399267399
7.0 0.02948717948717949
7.2 0.03009157509157509
7.4 0.030494505494505494
7.6 0.031016483516483517
7.8 0.03165750915750916
8.0 0.03224358974358974
8.2 0.03281135531135531
8.4 0.03326923076923077
8.6 0.033772893772893775
8.8 0.03429487179487179
9.0 0.034835164835164835
9.2 0.03534798534798535
9.4 0.03576923076923077
9.6 0.0363003663003663
9.8 0.036813186813186814
10.0 0.03720695970695971
10.2 0.0377014652014652
10.4 0.03826923076923077
10.6 0.038717948717948716
10.8 0.03916666666666666
11.0 0.03958791208791209
11.2 0.04005494505494506
11.4 0.04052197802197802
11.6 0.04095238095238095
11.8 0.04134615384615385
12.0 0.04184065934065934
12.2 0.042271062271062275
12.4 0.042747252747252745
12.6 0.04304945054945055
12.8 0.04350732600732601
13.0 0.04394688644688645
13.2 0.04434981684981685
13.4 0.04488095238095238
13.6 0.04527472527472527
13.8 0.04573260073260073
14.0 0.04615384615384615
14.2 0.046474358974358976
14.4 0.04682234432234433
14.6 0.04718864468864469
14.8 0.047692307692307694
15.0 0.04804945054945055
15.2 0.04847069597069597
15.4 0.04881868131868132
15.6 0.04922161172161173
15.8 0.04962454212454213
16.0 0.04995421245421246
16.2 0.05036630036630037
16.4 0.05069597069597069
16.6 0.051227106227106224
16.8 0.05154761904761905
17.0 0.051913919413919415
17.2 0.052216117216117214
17.4 0.052628205128205124
17.6 0.05301282051282051
17.8 0.05333333333333333
18.0 0.05378205128205129
18.2 0.0541941391941392
18.4 0.05450549450549451
18.6 0.054945054945054944
18.8 0.05533882783882784
19.0 0.05575091575091575
19.2 0.0561996336996337
19.4 0.05658424908424909
19.6 0.056996336996337
19.8 0.057362637362637366
20.0 0.05758241758241758
20.2 0.05787545787545787
20.4 0.05822344322344322
20.6 0.05864468864468864
20.8 0.05904761904761905
21.0 0.05935897435897436
21.2 0.05971611721611722
21.4 0.060082417582417585
21.6 0.060467032967032965
21.8 0.06075091575091575
22.0 0.06108058608058608
22.2 0.061483516483516486
22.4 0.061822344322344326
22.6 0.062152014652014656
22.8 0.06240842490842491
23.0 0.06274725274725275
23.2 0.06295787545787546
23.4 0.06333333333333332
23.6 0.06369963369963369
23.8 0.06401098901098902
24.0 0.06433150183150184
24.2 0.06457875457875457
24.4 0.06486263736263737
24.6 0.06515567765567766
24.8 0.06543040293040293
25.0 0.0658058608058608
25.2 0.06603479853479853
25.4 0.06633699633699634
25.6 0.06662087912087912
25.8 0.06688644688644689
26.0 0.06714285714285714
26.2 0.06734432234432235
26.4 0.06758241758241758
26.6 0.06783882783882783
26.8 0.06814102564102564
27.0 0.06841575091575092
27.2 0.06873626373626374
27.4 0.06902014652014653
27.6 0.06926739926739928
27.8 0.06968864468864469
28.0 0.06995421245421246
28.2 0.07022893772893773
28.4 0.07049450549450549
28.6 0.07074175824175824
28.8 0.07091575091575092
29.0 0.07116300366300365
29.2 0.07134615384615385
29.4 0.0715934065934066
29.6 0.07183150183150183
29.8 0.07203296703296704
30.0 0.0722985347985348
30.2 0.07255494505494506
30.4 0.07281135531135531
30.6 0.07304029304029304
30.8 0.07328754578754579
31.0 0.07353479853479854
31.2 0.07380952380952381
31.4 0.07401098901098901
31.6 0.07423076923076924
31.8 0.07443223443223443
32.0 0.07467032967032967
32.2 0.07493589743589743
32.4 0.07511904761904761
32.6 0.07534798534798534
32.8 0.07561355311355311
33.0 0.0758058608058608
33.2 0.07604395604395604
33.4 0.07627289377289377
33.6 0.07651098901098902
33.8 0.07675824175824177
34.0 0.076996336996337
34.2 0.07735347985347986
34.4 0.07754578754578755
34.6 0.07778388278388278
34.8 0.07803113553113553
35.0 0.07832417582417582
35.2 0.07847985347985348
35.4 0.07871794871794871
35.6 0.07891025641025641
35.8 0.0791941391941392
36.0 0.07936813186813187
36.2 0.07955128205128205
36.4 0.0797893772893773
36.6 0.07991758241758241
36.8 0.08010989010989011
37.0 0.08030219780219781
37.2 0.08053113553113553
37.4 0.08081501831501832
37.6 0.0810897435897436
37.8 0.08124542124542124
38.0 0.08148351648351648
38.2 0.08164835164835164
38.4 0.08184065934065934
38.6 0.08206959706959706
38.8 0.08222527472527473
39.0 0.08246336996336996
39.2 0.08273809523809524
39.4 0.08304029304029305
39.6 0.0832967032967033
39.8 0.08347069597069597
40.0 0.08372710622710622
40.2 0.0839102564102564
40.4 0.08413919413919414
40.6 0.08436813186813186
40.8 0.08454212454212455
41.0 0.08470695970695971
41.2 0.08495421245421245
41.4 0.08521978021978022
41.6 0.08545787545787546
41.8 0.08568681318681319
42.0 0.08597985347985349
42.2 0.08612637362637363
42.4 0.08630952380952381
42.6 0.08658424908424908
42.8 0.08688644688644688
43.0 0.08706959706959706
43.2 0.08723443223443222
43.4 0.08744505494505495
43.6 0.08764652014652015
43.8 0.08782967032967033
44.0 0.08798534798534799
44.2 0.08820512820512821
44.4 0.08837912087912088
44.6 0.08863553113553113
44.8 0.08889194139194138
45.0 0.08913919413919415
45.2 0.08938644688644688
45.4 0.0896062271062271
45.6 0.08984432234432234
45.8 0.0901007326007326
46.0 0.09027472527472527
46.2 0.09051282051282052
46.4 0.09073260073260073
46.6 0.09097069597069597
46.8 0.09119047619047618
47.0 0.09141025641025641
47.2 0.09159340659340659
47.4 0.09185897435897436
47.6 0.09202380952380952
47.8 0.09227106227106226
48.0 0.09251831501831502
48.2 0.09268315018315018
48.4 0.0929029304029304
48.6 0.09304029304029304
48.8 0.09335164835164836
49.0 0.09352564102564102
49.2 0.09375457875457877
49.4 0.09398351648351648
49.6 0.09420329670329669
49.8 0.09447802197802196
50.0 0.09467948717948717
50.2 0.09491758241758241
50.4 0.0951923076923077
50.6 0.09540293040293041
50.8 0.09557692307692309
51.0 0.09582417582417582
51.2 0.09605311355311356
51.4 0.09630952380952382
51.6 0.09652014652014651
51.8 0.09677655677655678
52.0 0.0969047619047619
52.2 0.09711538461538462
52.4 0.09737179487179487
52.6 0.09761904761904763
52.8 0.09787545787545789
53.0 0.09814102564102564
53.2 0.0983974358974359
53.4 0.09868131868131869
53.6 0.09884615384615385
53.8 0.09912087912087912
54.0 0.0993040293040293
54.2 0.09945054945054946
54.4 0.09961538461538462
54.6 0.09992673992673992
54.8 0.10012820512820512
55.0 0.1003937728937729
55.2 0.10063186813186814
55.4 0.10077838827838828
55.6 0.10093406593406593
55.8 0.1010989010989011
56.0 0.10130036630036629
56.2 0.1015018315018315
56.4 0.10172161172161172
56.6 0.10199633699633699
56.8 0.10222527472527472
57.0 0.1023901098901099
57.2 0.10263736263736264
57.4 0.10281135531135531
57.6 0.10302197802197803
57.8 0.10331501831501833
58.0 0.10358058608058608
58.2 0.10375457875457876
58.4 0.10402930402930403
58.6 0.10427655677655677
58.8 0.10455128205128204
59.0 0.10475274725274725
59.2 0.105
59.4 0.10521978021978022
59.6 0.1054029304029304
59.8 0.10557692307692308
60.0 0.1057967032967033
60.2 0.10597069597069597
60.4 0.10613553113553113
60.6 0.10632783882783883
60.8 0.10658424908424909
61.0 0.10687728937728938
61.2 0.10704212454212454
61.4 0.10727106227106226
61.6 0.1075
61.8 0.10774725274725276
62.0 0.10795787545787545
62.2 0.1081868131868132
62.4 0.10837912087912088
62.6 0.10864468864468865
62.8 0.10891025641025641
63.0 0.10916666666666666
63.2 0.1093956043956044
63.4 0.10965201465201466
63.6 0.10987179487179487
63.8 0.11011904761904763
64.0 0.11037545787545788
64.2 0.11063186813186814
64.4 0.11081501831501832
64.6 0.11102564102564103
64.8 0.11118131868131868
65.0 0.11148351648351648
65.2 0.11165750915750916
65.4 0.11191391941391941
65.6 0.11212454212454212
65.8 0.1123992673992674
66.0 0.11258241758241759
66.2 0.11285714285714286
66.4 0.11311355311355312
66.6 0.11333333333333334
66.8 0.11354395604395603
67.0 0.11383699633699633
67.2 0.11402014652014651
67.4 0.11432234432234432
67.6 0.11444139194139194
67.8 0.11471611721611721
68.0 0.11498168498168498
68.2 0.11525641025641026
68.4 0.11542124542124542
68.6 0.1155952380952381
68.8 0.1157967032967033
69.0 0.11605311355311355
69.2 0.11628205128205128
69.4 0.1166117216117216
69.6 0.11683150183150183
69.8 0.11706959706959706
70.0 0.11735347985347985
70.2 0.11757326007326008
70.4 0.11785714285714287
70.6 0.11811355311355312
70.8 0.11836080586080586
71.0 0.11858058608058608
71.2 0.11880036630036629
71.4 0.11904761904761905
71.6 0.11929487179487179
71.8 0.11954212454212454
72.0 0.11972527472527472
72.2 0.11985347985347986
72.4 0.12018315018315018
72.6 0.12035714285714287
72.8 0.12061355311355312
73.0 0.12076923076923077
73.2 0.12097985347985349
73.4 0.12118131868131869
73.6 0.121492673992674
73.8 0.12171245421245422
74.0 0.12200549450549451
74.2 0.1223076923076923
74.4 0.12256410256410258
74.6 0.12282967032967033
74.8 0.12304945054945055
75.0 0.12326923076923077
75.2 0.12347069597069597
75.4 0.12369047619047618
75.6 0.1239010989010989
75.8 0.12410256410256411
76.0 0.12430402930402931
76.2 0.12453296703296703
76.4 0.12489926739926739
76.6 0.12511904761904763
76.8 0.12538461538461537
77.0 0.12554945054945055
77.2 0.12583333333333335
77.4 0.1260805860805861
77.6 0.12634615384615386
77.8 0.12654761904761905
78.0 0.12677655677655678
78.2 0.12706043956043955
78.4 0.12720695970695972
78.6 0.12739926739926738
78.8 0.1275732600732601
79.0 0.12783882783882786
79.2 0.12815018315018314
79.4 0.12836996336996337
79.6 0.1286080586080586
79.8 0.1288003663003663
80.0 0.12904761904761905
80.2 0.12926739926739927
80.4 0.1295787545787546
80.6 0.12987179487179487
80.8 0.13011904761904763
81.0 0.13029304029304029
81.2 0.1305860805860806
81.4 0.13075091575091574
81.6 0.13086080586080587
81.8 0.13105311355311355
82.0 0.13126373626373625
82.2 0.13148351648351647
82.4 0.13173992673992674
82.6 0.13194139194139193
82.8 0.1322161172161172
83.0 0.13244505494505496
83.2 0.13265567765567765
83.4 0.13277472527472528
83.6 0.13294871794871796
83.8 0.1331959706959707
84.0 0.13346153846153846
84.2 0.13365384615384615
84.4 0.13391025641025642
84.6 0.1341849816849817
84.8 0.13442307692307692
85.0 0.13467948717948716
85.2 0.13485347985347984
85.4 0.1351831501831502
85.6 0.13543040293040293
85.8 0.13563186813186814
86.0 0.1358974358974359
86.2 0.1362087912087912
86.4 0.13646520146520147
86.6 0.1367124542124542
86.8 0.13696886446886447
87.0 0.13727106227106226
87.2 0.13744505494505493
87.4 0.13762820512820512
87.6 0.13785714285714287
87.8 0.13803113553113552
88.0 0.13825091575091575
88.2 0.13845238095238094
88.4 0.1385897435897436
88.6 0.1387820512820513
88.8 0.13902930402930402
89.0 0.1392857142857143
89.2 0.13951465201465202
89.4 0.13973443223443222
89.6 0.14000915750915752
89.8 0.14022893772893774
90.0 0.14043040293040293
90.2 0.14067765567765567
90.4 0.1408882783882784
90.6 0.14116300366300366
90.8 0.1414102564102564
91.0 0.14155677655677656
91.2 0.1417948717948718
91.4 0.14206959706959707
91.6 0.14224358974358975
91.8 0.14243589743589744
92.0 0.1426007326007326
92.2 0.14277472527472526
92.4 0.14304029304029306
92.6 0.1433058608058608
92.8 0.143507326007326
93.0 0.14373626373626375
93.2 0.14401098901098902
93.4 0.1442124542124542
93.6 0.14441391941391943
93.8 0.14461538461538462
94.0 0.1448260073260073
94.2 0.14503663003663003
94.4 0.14524725274725275
94.6 0.14545787545787545
94.8 0.1456868131868132
95.0 0.14586080586080585
95.2 0.14604395604395604
95.4 0.14635531135531135
95.6 0.14663919413919413
95.8 0.1468956043956044
96.0 0.14713369963369963
96.2 0.14743589743589744
96.4 0.14765567765567766
96.6 0.14791208791208793
96.8 0.14812271062271062
97.0 0.14847069597069595
97.2 0.1487087912087912
97.4 0.14891941391941393
97.6 0.14909340659340659
97.8 0.14924908424908426
98.0 0.14943223443223444
98.2 0.14971611721611722
98.4 0.1499175824175824
98.6 0.15021062271062272
98.8 0.1503937728937729
99.0 0.15065018315018316
99.2 0.15092490842490844
99.4 0.15108058608058608
99.6 0.15124542124542123
99.8 0.15153846153846154
100.0 0.1517032967032967
100.2 0.15195054945054945
100.4 0.15214285714285714
100.6 0.1523901098901099
100.8 0.15261904761904763
101.0 0.15282967032967032
101.2 0.153003663003663
101.4 0.15326007326007327
101.6 0.1534798534798535
101.8 0.15367216117216118
102.0 0.153974358974359
102.2 0.15421245421245422
102.4 0.15446886446886446
102.6 0.15467948717948718
102.8 0.15485347985347986
103.0 0.15502747252747254
103.2 0.15521062271062272
103.4 0.1553937728937729
103.6 0.1555952380952381
103.8 0.15578754578754578
104.0 0.15595238095238095
104.2 0.15619047619047619
104.4 0.15654761904761905
104.6 0.15675824175824174
104.8 0.15697802197802196
105.0 0.15722527472527473
105.2 0.15746336996336996
105.4 0.15762820512820513
105.6 0.15781135531135532
105.8 0.15804945054945055
106.0 0.15825091575091574
106.2 0.1584065934065934
106.4 0.15863553113553114
106.6 0.15881868131868132
106.8 0.159010989010989
107.0 0.15922161172161173
107.2 0.15945970695970696
107.4 0.15967032967032968
107.6 0.15993589743589742
107.8 0.16016483516483518
108.0 0.16039377289377288
108.2 0.16057692307692306
108.4 0.16086080586080587
108.6 0.1610164835164835
108.8 0.16116300366300365
109.0 0.16132783882783883
109.2 0.161510989010989
109.4 0.1617216117216117
109.6 0.16200549450549448
109.8 0.1621153846153846
110.0 0.16234432234432233
110.2 0.1625
110.4 0.16277472527472528
110.6 0.16295787545787546
110.8 0.16316849816849818
111.0 0.16344322344322343
111.2 0.16371794871794873
111.4 0.16397435897435897
111.6 0.1641849816849817
111.8 0.1644047619047619
112.0 0.16458791208791207
112.2 0.16475274725274727
112.4 0.16496336996336997
112.6 0.1651831501831502
112.8 0.16540293040293041
113.0 0.1656227106227106
113.2 0.1658058608058608
113.4 0.16606227106227106
113.6 0.16630036630036632
113.8 0.16655677655677656
114.0 0.16674908424908425
114.2 0.16697802197802197
114.4 0.16714285714285715
114.6 0.16738095238095238
114.8 0.16753663003663002
115.0 0.16772893772893774
115.2 0.16793040293040293
115.4 0.16823260073260074
115.6 0.16844322344322343
115.8 0.1686813186813187
116.0 0.16891025641025642
116.2 0.1690934065934066
116.4 0.16927655677655679
116.6 0.1695054945054945
116.8 0.16967032967032966
117.0 0.16992673992673993
117.2 0.17010073260073258
117.4 0.17031135531135533
117.6 0.1706043956043956
117.8 0.1707967032967033
118.0 0.17102564102564102
118.2 0.17126373626373628
118.4 0.17154761904761906
118.6 0.17175824175824175
118.8 0.17197802197802198
119.0 0.1722069597069597
119.2 0.1723168498168498
119.4 0.1725915750915751
119.6 0.17282967032967034
119.8 0.17305860805860807
120.0 0.17324175824175825
120.2 0.17346153846153847
120.4 0.17366300366300366
120.6 0.17388278388278386
120.8 0.17415750915750916
121.0 0.1743223443223443
121.2 0.17449633699633701
121.4 0.17469780219780218
121.6 0.1749175824175824
121.8 0.1752106227106227
122.0 0.17541208791208793
122.2 0.1755952380952381
122.4 0.17581501831501833
122.6 0.1760164835164835
122.8 0.1762087912087912
123.0 0.1764194139194139
123.2 0.17658424908424908
123.4 0.1767765567765568
123.6 0.17696886446886445
123.8 0.1771794871794872
124.0 0.17737179487179486
124.2 0.17754578754578756
124.4 0.1777014652014652
124.6 0.17795787545787548
124.8 0.17818681318681318
125.0 0.1783882783882784
125.2 0.17863553113553113
125.4 0.17883699633699635
125.6 0.17911172161172162
125.8 0.1793040293040293
126.0 0.1794871794871795
126.2 0.17974358974358975
126.4 0.18000915750915752
126.6 0.1802747252747253
126.8 0.18047619047619048
127.0 0.18069597069597068
127.2 0.18097069597069598
127.4 0.18122710622710625
127.6 0.1814194139194139
127.8 0.18156593406593405
128.0 0.18185897435897436
128.2 0.18205128205128204
128.4 0.18224358974358976
128.6 0.1823992673992674
128.8 0.1826923076923077
129.0 0.18293956043956044
129.2 0.18314102564102566
129.4 0.18326923076923077
129.6 0.18353479853479854
129.8 0.18375457875457876
130.0 0.18393772893772894
130.2 0.18414835164835164
130.4 0.18447802197802196
130.6 0.18463369963369963
130.8 0.1847893772893773
131.0 0.1850274725274725
131.2 0.1851923076923077
131.4 0.1853754578754579
131.6 0.18560439560439562
131.8 0.18576923076923077
132.0 0.18597985347985346
132.2 0.18617216117216118
132.4 0.18632783882783882
132.6 0.18656593406593405
132.8 0.18673992673992676
133.0 0.18692307692307694
133.2 0.18721611721611722
133.4 0.18744505494505492
133.6 0.18771978021978022
133.8 0.18792124542124544
134.0 0.18807692307692306
134.2 0.18834249084249083
134.4 0.188489010989011
134.6 0.18873626373626373
134.8 0.18892857142857142
135.0 0.18917582417582415
135.2 0.1893223443223443
135.4 0.18950549450549448
135.6 0.18971611721611722
135.8 0.18984432234432233
136.0 0.19009157509157512
136.2 0.19030219780219781
136.4 0.19046703296703296
136.6 0.1905860805860806
136.8 0.19080586080586082
137.0 0.190970695970696
137.2 0.19116300366300365
137.4 0.19132783882783883
137.6 0.1915018315018315
137.8 0.19173992673992676
138.0 0.19191391941391941
138.2 0.19217032967032968
138.4 0.19235347985347986
138.6 0.19255494505494508
138.8 0.19272893772893773
139.0 0.19291208791208792
139.2 0.1931227106227106
139.4 0.1933882783882784
139.6 0.1936263736263736
139.8 0.19381868131868132
140.0 0.19393772893772895
140.2 0.19413919413919412
140.4 0.19434065934065933
140.6 0.19447802197802197
140.8 0.19463369963369964
141.0 0.19491758241758242
141.2 0.19512820512820514
141.4 0.19530219780219782
141.6 0.19554029304029302
141.8 0.19565018315018315
142.0 0.19584249084249084
142.2 0.19605311355311353
142.4 0.19625457875457875
142.6 0.19644688644688646
142.8 0.19664835164835165
143.0 0.19685897435897434
143.2 0.1970695970695971
143.4 0.19737179487179485
143.6 0.1975
143.8 0.19767399267399266
144.0 0.1979945054945055
144.2 0.1983058608058608
144.4 0.1984981684981685
144.6 0.1986813186813187
144.8 0.19886446886446887
145.0 0.1989835164835165
145.2 0.1990934065934066
145.4 0.19931318681318683
145.6 0.19948717948717948
145.8 0.19955128205128203
146.0 0.1997252747252747
146.2 0.19996336996336997
146.4 0.20014652014652015
146.6 0.20037545787545788
146.8 0.20050366300366299
147.0 0.2007234432234432
147.2 0.20089743589743592
147.4 0.2011080586080586
