#\tau/\tau_{d} vs n_{pack}/N
0.0 0.0
0.2 0.0008157389635316699
0.4 0.0034357005758157387
0.6 0.005671785028790787
0.8 0.00744721689059501
1.0 0.008896353166986564
1.2 0.01034548944337812
1.4 0.011833013435700576
1.6 0.013234165067178503
1.8 0.014702495201535508
2.0 0.016036468330134356
2.2 0.017130518234165067
2.4 0.018234165067178502
2.6 0.019366602687140116
2.8 0.02047984644913628
3.0 0.0218042226487524
3.2 0.02291746641074856
3.4 0.024069097888675627
3.6 0.025172744721689056
3.8 0.026170825335892513
4.0 0.027264875239923225
4.2 0.028166986564299425
4.4 0.029222648752399234
4.6 0.03023992322456814
4.8 0.03124760076775432
5.0 0.03216890595009597
5.2 0.03308061420345489
5.4 0.034021113243761995
5.6 0.034750479846449134
5.8 0.03550863723608445
6.0 0.036401151631477925
6.2 0.03731285988483685
6.4 0.03821497120921305
6.6 0.03904030710172745
6.8 0.0398848368522073
7.0 0.040633397312859885
7.2 0.041295585412667944
7.4 0.04218809980806142
7.6 0.04283109404990403
7.8 0.04362763915547025
8.0 0.04436660268714012
8.2 0.04505758157389636
8.4 0.045796545105566216
8.6 0.046458733205374275
8.8 0.0472936660268714
9.0 0.04787907869481766
9.2 0.04847408829174664
9.4 0.04914587332053743
9.6 0.04970249520153551
9.8 0.05032629558541266
10.0 0.050959692898272554
10.2 0.05172744721689059
10.4 0.05244721689059501
10.6 0.05314779270633397
10.8 0.053723608445297506
11.0 0.05426103646833013
11.2 0.05476007677543186
11.4 0.055297504798464486
11.6 0.05588291746641075
11.8 0.056650671785028785
12.0 0.05719769673704414
12.2 0.05771593090211132
12.4 0.05823416506717851
12.6 0.05874280230326295
12.8 0.05935700575815739
13.0 0.059952015355086374
13.2 0.060556621880998085
13.4 0.06113243761996161
13.6 0.06163147792706334
13.8 0.0623704414587332
14.0 0.06286948176583493
14.2 0.06337811900191938
14.4 0.0638771593090211
14.6 0.06443378119001919
14.8 0.06502879078694818
15.0 0.0654510556621881
15.2 0.06589251439539347
15.4 0.06645873320537428
15.6 0.06697696737044147
15.8 0.06755278310940499
16.0 0.06800383877159309
16.2 0.068426103646833
16.4 0.06887715930902111
16.6 0.06945297504798464
16.8 0.06997120921305182
17.0 0.07044145873320537
17.2 0.07084452975047985
17.4 0.07137236084452975
17.6 0.07188099808061421
17.8 0.07233205374280231
18.0 0.07289827255278311
18.2 0.07340690978886756
18.4 0.07395393474088291
18.6 0.0746257197696737
18.8 0.07518234165067178
19.0 0.07561420345489443
19.2 0.07620921305182342
19.4 0.07663147792706333
19.6 0.0771401151631478
19.8 0.07758157389635317
20.0 0.07809021113243762
20.2 0.07855086372360845
20.4 0.07917466410748561
20.6 0.07982725527831094
20.8 0.08034548944337812
21.0 0.08078694817658348
21.2 0.08135316698656431
21.4 0.08182341650671786
21.6 0.0822552783109405
21.8 0.0827831094049904
22.0 0.08330134357005757
22.2 0.08387715930902111
22.4 0.08453934740882918
22.6 0.08500959692898272
22.8 0.08555662188099808
23.0 0.08614203454894433
23.2 0.08661228406909789
23.4 0.08716890595009597
23.6 0.0877447216890595
23.8 0.08829174664107485
24.0 0.08886756238003839
24.2 0.08941458733205375
24.4 0.08990403071017275
24.6 0.0904126679462572
24.8 0.09099808061420346
25.0 0.09155470249520153
25.2 0.09210172744721688
25.4 0.09269673704414588
25.6 0.09327255278310939
25.8 0.09373320537428023
26.0 0.09424184261036467
26.2 0.09491362763915547
26.4 0.09536468330134357
26.6 0.09598848368522074
26.8 0.09658349328214971
27.0 0.0972168905950096
27.2 0.09779270633397313
27.4 0.09845489443378119
27.6 0.09898272552783109
27.8 0.09957773512476008
28.0 0.10021113243761998
28.2 0.10085412667946256
28.4 0.10147792706333973
28.6 0.10208253358925144
28.8 0.10264875239923224
29.0 0.10314779270633398
29.2 0.10371401151631478
29.4 0.10427063339731285
29.6 0.10485604606525913
29.8 0.10550863723608446
30.0 0.1061612284069098
30.2 0.10667946257197697
30.4 0.10712092130518235
30.6 0.10764875239923224
30.8 0.10822456813819578
31.0 0.10869481765834933
31.2 0.10923224568138196
31.4 0.1099232245681382
31.6 0.110489443378119
31.8 0.11123800383877158
32.0 0.11188099808061419
32.2 0.11242802303262955
32.4 0.11283109404990403
32.6 0.11343570057581574
32.8 0.11404030710172744
33.0 0.11457773512476008
33.2 0.11502879078694818
33.4 0.11567178502879079
33.6 0.1162763915547025
33.8 0.11683301343570057
34.0 0.1174760076775432
34.2 0.11808061420345489
34.4 0.11859884836852208
34.6 0.11903071017274472
34.8 0.11963531669865643
35.0 0.12024952015355087
35.2 0.12092130518234166
35.4 0.12148752399232246
35.6 0.12214971209213052
35.8 0.12275431861804222
36.0 0.12331094049904032
36.2 0.12383877159309022
36.4 0.12431861804222649
36.6 0.12500959692898272
36.8 0.12562380038387716
37.0 0.12617082533589252
37.2 0.12661228406909789
37.4 0.1271017274472169
37.6 0.12768714011516313
37.8 0.12831094049904032
38.0 0.12877159309021113
38.2 0.12945297504798464
38.4 0.13008637236084453
38.6 0.13059500959692896
38.8 0.13119001919385798
39.0 0.1317370441458733
39.2 0.13241842610364685
39.4 0.13296545105566218
39.6 0.13347408829174665
39.8 0.1341746641074856
40.0 0.13469289827255276
40.2 0.13531669865642995
40.4 0.1359309021113244
40.6 0.13658349328214972
40.8 0.13700575815738963
41.0 0.137552783109405
41.2 0.1381190019193858
41.4 0.13878119001919387
41.6 0.13919385796545106
41.8 0.13965451055662187
42.0 0.14032629558541265
42.2 0.1408925143953935
42.4 0.14149712092130518
42.6 0.14215930902111323
42.8 0.14261996161228407
43.0 0.1431190019193858
43.2 0.14378119001919384
43.4 0.14431861804222648
43.6 0.1448080614203455
43.8 0.14535508637236083
44.0 0.1457869481765835
44.2 0.14626679462571976
44.4 0.14687140115163147
44.6 0.14745681381957773
44.8 0.14806142034548944
45.0 0.14843570057581576
45.2 0.14904030710172744
45.4 0.14967370441458733
45.6 0.15028790786948176
45.8 0.15091170825335892
46.0 0.151468330134357
46.2 0.15200575815738962
46.4 0.15265834932821495
46.6 0.15324376199616124
46.8 0.15389635316698658
47.0 0.1545201535508637
47.2 0.15505758157389635
47.4 0.15567178502879078
47.6 0.15621880998080614
47.8 0.15671785028790786
48.0 0.15722648752399232
48.2 0.15777351247600768
48.4 0.15840690978886757
48.6 0.15886756238003838
48.8 0.15938579654510557
49.0 0.15991362763915545
49.2 0.16039347408829177
49.4 0.16089251439539345
49.6 0.16142994241842612
49.8 0.1619193857965451
50.0 0.16247600767754317
50.2 0.1630518234165067
50.4 0.16359884836852207
50.6 0.16423224568138195
50.8 0.16476967370441456
51.0 0.16520153550863725
51.2 0.16571976967370441
51.4 0.1661708253358925
51.6 0.16666026871401152
51.8 0.16713051823416505
52.0 0.16760076775431862
52.2 0.16813819577735123
52.4 0.16873320537428022
52.6 0.1691746641074856
52.8 0.16971209213051824
53.0 0.17020153550863726
53.2 0.1707485604606526
53.4 0.17121880998080613
53.6 0.17171785028790787
53.8 0.17234165067178503
54.0 0.17284069097888677
54.2 0.1733109404990403
54.4 0.1738291746641075
54.6 0.17434740882917465
54.8 0.17498080614203457
55.0 0.1755278310940499
55.2 0.17591170825335894
55.4 0.17655470249520153
55.6 0.17693857965451054
55.8 0.1774088291746641
56.0 0.17786948176583495
56.2 0.17843570057581573
56.4 0.17888675623800385
56.6 0.17938579654510556
56.8 0.17995201535508637
57.0 0.18050863723608443
57.2 0.18089251439539347
57.4 0.1813915547024952
57.6 0.18185220729366602
57.8 0.18237044145873318
58.0 0.18286948176583492
58.2 0.1832725527831094
58.4 0.18373320537428023
58.6 0.18442418426103646
58.8 0.18490403071017275
59.0 0.1853646833013436
59.2 0.18579654510556623
59.4 0.18636276391554701
59.6 0.18692898272552783
59.8 0.18738963531669867
60.0 0.18781190019193858
60.2 0.18830134357005757
60.4 0.18884836852207293
60.6 0.1893953934740883
60.8 0.18991362763915545
61.0 0.19027831094049905
61.2 0.19080614203454893
61.4 0.19121880998080612
61.6 0.19171785028790786
61.8 0.19217850287907867
62.0 0.1926775431861804
62.2 0.19316698656429943
62.4 0.1936084452975048
62.6 0.19412667946257198
62.8 0.19461612284069096
63.0 0.1950671785028791
63.2 0.19559500959692896
63.4 0.1960268714011516
63.6 0.19642994241842612
63.8 0.19693857965451056
64.0 0.1973608445297505
64.2 0.19785988483685218
64.4 0.1982725527831094
64.6 0.19862763915547024
64.8 0.19915547024952016
65.0 0.19961612284069097
65.2 0.20000959692898274
65.4 0.20042226487523995
65.6 0.20079654510556622
65.8 0.20113243761996163
66.0 0.2015451055662188
66.2 0.20203454894433784
66.4 0.20257197696737045
66.6 0.20299424184261036
66.8 0.203531669865643
67.0 0.20391554702495202
67.2 0.20442418426103648
67.4 0.20479846449136274
67.6 0.20527831094049906
67.8 0.2057101727447217
68.0 0.20614203454894434
68.2 0.20662188099808063
68.4 0.207168905950096
68.6 0.20761996161228408
68.8 0.20804222648752402
69.0 0.20835892514395393
69.2 0.20874280230326295
69.4 0.2091746641074856
69.6 0.20963531669865643
69.8 0.21010556621880996
70.0 0.21054702495201535
70.2 0.21094049904030712
70.4 0.2113435700575816
70.6 0.21181381957773515
70.8 0.212341650671785
71.0 0.21276391554702495
71.2 0.21323416506717852
71.4 0.21361804222648753
71.6 0.21414587332053742
71.8 0.21460652591170823
72.0 0.21502879078694817
72.2 0.2153742802303263
72.4 0.21576775431861805
72.6 0.21617082533589252
72.8 0.21668905950095968
73.0 0.21712092130518232
73.2 0.2175623800383877
73.4 0.2178598848368522
73.6 0.21828214971209214
73.8 0.21861804222648754
74.0 0.21904990403071017
74.2 0.2195585412667946
74.4 0.22002879078694818
74.6 0.2204606525911708
74.8 0.22092130518234165
75.0 0.22130518234165067
75.2 0.22170825335892513
75.4 0.2220729366602687
75.6 0.2225143953934741
75.8 0.22302303262955853
76.0 0.2234165067178503
76.2 0.22379078694817658
76.4 0.22418426103646832
76.6 0.224616122840691
76.8 0.2249232245681382
77.0 0.22539347408829177
77.2 0.2258349328214971
77.4 0.22614203454894433
77.6 0.22656429942418427
77.8 0.226957773512476
78.0 0.22742802303262954
78.2 0.2278214971209213
78.4 0.22835892514395392
78.6 0.22870441458733204
78.8 0.22920345489443378
79.0 0.22960652591170824
79.2 0.2300479846449136
79.4 0.230489443378119
79.6 0.23081573896353166
79.8 0.2313147792706334
80.0 0.2316890595009597
80.2 0.23200575815738966
80.4 0.23238963531669868
80.6 0.23289827255278311
80.8 0.23329174664107488
81.0 0.23369481765834935
81.2 0.2342514395393474
81.4 0.23463531669865642
81.6 0.2350287907869482
81.8 0.23546065259117083
82.0 0.23598848368522074
82.2 0.23633397312859883
82.4 0.23671785028790787
82.6 0.23709213051823416
82.8 0.23751439539347408
83.0 0.23796545105566216
83.2 0.23843570057581573
83.4 0.23878119001919387
83.6 0.2391458733205374
83.8 0.23946257197696738
84.0 0.23990403071017277
84.2 0.24050863723608443
84.4 0.2408253358925144
84.6 0.24123800383877161
84.8 0.24166986564299425
85.0 0.24220729366602686
85.2 0.24257197696737046
85.4 0.2430710172744722
85.6 0.24340690978886756
85.8 0.24377159309021112
86.0 0.24418426103646834
86.2 0.24469289827255278
86.4 0.24500959692898275
86.6 0.24539347408829176
86.8 0.2456813819577735
87.0 0.24617082533589252
87.2 0.24667946257197698
87.4 0.24707293666026872
87.6 0.24747600767754319
87.8 0.24780230326295583
88.0 0.2481957773512476
88.2 0.24859884836852206
88.4 0.24899232245681382
88.6 0.24943378119001922
88.8 0.2498560460652591
89.0 0.2503358925143954
89.2 0.2507965451055662
89.4 0.2511228406909789
89.6 0.2515067178502879
89.8 0.2519481765834933
90.0 0.2522936660268714
90.2 0.2527831094049904
90.4 0.2530902111324376
90.6 0.25357005758157386
90.8 0.2540595009596929
91.0 0.2544721689059501
91.2 0.25478886756238006
91.4 0.2551919385796545
91.6 0.2556429942418426
91.8 0.25592130518234163
92.0 0.25629558541266795
92.2 0.25682341650671786
92.4 0.25720729366602685
92.6 0.25761996161228407
92.8 0.2580806142034549
93.0 0.25844529750479844
93.2 0.25893474088291746
93.4 0.2593282149712092
93.6 0.25986564299424186
93.8 0.2602207293666027
94.0 0.26065259117082534
94.2 0.2610460652591171
94.4 0.26144913627639155
94.6 0.2619097888675624
94.8 0.262236084452975
95.0 0.26281190019193856
95.2 0.2631573896353167
95.4 0.26350287907869485
95.6 0.26384836852207294
95.8 0.2642226487523992
96.0 0.26469289827255277
96.2 0.26509596928982726
96.4 0.2654510556621881
96.6 0.2659500959692898
96.8 0.2664203454894434
97.0 0.26671785028790784
97.2 0.2671113243761996
97.4 0.2675047984644914
97.6 0.26790786948176587
97.8 0.2682725527831094
98.0 0.26859884836852205
98.2 0.2689923224568138
98.4 0.26940499040307103
98.6 0.26973128598848367
98.8 0.27020153550863724
99.0 0.2705854126679463
99.2 0.27095969289827254
99.4 0.2713051823416507
99.6 0.27171785028790785
99.8 0.2721017274472169
100.0 0.27249520153550866
100.2 0.27293666026871405
100.4 0.273426103646833
100.6 0.273742802303263
100.8 0.2742226487523992
101.0 0.2747024952015355
101.2 0.27516314779270634
101.4 0.275489443378119
101.6 0.2758157389635317
101.8 0.2762667946257198
102.0 0.27652591170825336
102.2 0.27688099808061417
102.4 0.2772648752399232
102.6 0.27756238003838773
102.8 0.27787907869481765
103.0 0.27833013435700577
103.2 0.27871401151631475
103.4 0.2790307101727447
103.6 0.27939539347408826
103.8 0.2797312859884837
104.0 0.2801535508637236
104.2 0.2805854126679463
104.4 0.2809117082533589
104.6 0.28140115163147794
104.8 0.28166986564299423
105.0 0.28216890595009597
105.2 0.282552783109405
105.4 0.2828119001919386
105.6 0.2831285988483685
105.8 0.28356046065259116
106.0 0.2839347408829175
106.2 0.2842994241842611
106.4 0.2847696737044146
106.6 0.2852207293666027
106.8 0.28554702495201534
107.0 0.2858061420345489
107.2 0.28619961612284067
107.4 0.2866602687140115
107.6 0.28703454894433783
107.8 0.2874184261036468
108.0 0.28790786948176583
108.2 0.2883877159309021
108.4 0.28879078694817656
108.6 0.2891650671785029
108.8 0.28959692898272554
109.0 0.2899808061420346
109.2 0.2904222648752399
109.4 0.2908349328214971
109.6 0.29111324376199615
109.8 0.2915067178502879
110.0 0.2918809980806142
110.2 0.2923800383877159
110.4 0.29279270633397314
110.6 0.29318618042226485
110.8 0.2934932821497121
111.0 0.2939059500959693
111.2 0.2943282149712092
111.4 0.2947024952015355
111.6 0.29503838771593094
111.8 0.2953262955854127
112.0 0.29581573896353164
112.2 0.2962667946257198
112.4 0.2966602687140115
112.6 0.2970441458733205
112.8 0.2975623800383877
113.0 0.2978886756238004
113.2 0.2982725527831094
113.4 0.2986084452975048
113.6 0.2989347408829175
113.8 0.2992802303262956
114.0 0.29958733205374277
114.2 0.2999616122840691
114.4 0.3002591170825336
114.6 0.30078694817658347
114.8 0.301084452975048
115.0 0.30134357005758156
115.2 0.30179462571976967
115.4 0.302168905950096
115.6 0.3026007677543186
115.8 0.30295585412667947
116.0 0.30330134357005756
116.2 0.3037140115163148
116.4 0.30415547024952017
116.6 0.30454894433781193
116.8 0.3049712092130518
117.0 0.3053742802303263
117.2 0.3056813819577735
117.4 0.3060940499040307
117.6 0.30642034548944336
117.8 0.30678502879078695
118.0 0.30725527831094046
118.2 0.30771593090211136
118.4 0.30802303262955855
118.6 0.30847408829174666
118.8 0.30885796545105565
119.0 0.30929942418426104
119.2 0.3096641074856046
119.4 0.30998080614203455
119.6 0.31043186180422266
119.8 0.3108061420345489
120.0 0.3112476007677543
120.2 0.31149712092130516
120.4 0.31186180422264875
120.6 0.3122456813819578
120.8 0.3126775431861804
121.0 0.3131190019193858
121.2 0.3135412667946257
121.4 0.31374280230326296
121.6 0.3140499040307102
121.8 0.31446257197696736
122.0 0.3148272552783109
122.2 0.3152591170825336
122.4 0.31562380038387716
122.6 0.31598848368522076
122.8 0.3164011516314779
123.0 0.31686180422264876
123.2 0.31722648752399235
123.4 0.31765834932821496
123.6 0.31798464491362766
123.8 0.3182629558541267
124.0 0.318637236084453
124.2 0.3190595009596929
124.4 0.3193953934740883
124.6 0.31986564299424186
124.8 0.3201631477927064
125.0 0.3205470249520153
125.2 0.32102687140115166
125.4 0.32146833013435705
125.6 0.3218042226487524
125.8 0.32213051823416505
126.0 0.3224664107485604
126.2 0.32285988483685224
126.4 0.32327255278310946
126.6 0.3235892514395393
126.8 0.32404990403071016
127.0 0.3244337811900192
127.2 0.32478886756238007
127.4 0.32517274472168906
127.6 0.3255374280230326
127.8 0.3259117082533589
128.0 0.3262380038387716
128.2 0.3265259117082534
128.4 0.32693857965451056
128.6 0.3273608445297505
128.8 0.32783109404990407
129.0 0.3282725527831094
129.2 0.3286180422264875
129.4 0.3288771593090211
129.6 0.32928982725527833
129.8 0.32964491362763915
130.0 0.3299808061420345
130.2 0.3303358925143954
130.4 0.3308253358925144
130.6 0.3311324376199616
130.8 0.33146833013435706
131.0 0.33187140115163144
131.2 0.3322264875239923
131.4 0.332658349328215
131.6 0.33296545105566216
131.8 0.3333397312859885
132.0 0.3336276391554703
132.2 0.33392514395393474
132.4 0.33422264875239927
132.6 0.3347024952015355
132.8 0.3351439539347409
133.0 0.3355662188099808
133.2 0.3359404990403071
133.4 0.33632437619961614
133.6 0.33664107485604605
133.8 0.3370825335892514
134.0 0.3373608445297505
134.2 0.3378502879078695
134.4 0.3381957773512476
134.6 0.33847408829174663
134.8 0.3388675623800384
135.0 0.33936660268714014
135.2 0.33964491362763916
135.4 0.3399904030710173
135.6 0.3403358925143954
135.8 0.3406046065259117
136.0 0.3410268714011517
136.2 0.34134357005758154
136.4 0.3419097888675624
136.6 0.34229366602687145
136.8 0.3425143953934741
137.0 0.3429174664107486
137.2 0.34324376199616125
137.4 0.3435988483685221
137.6 0.34396353166986565
137.8 0.34437619961612287
138.0 0.34483685220729365
138.2 0.34522072936660264
138.4 0.3456046065259117
138.6 0.34591170825335893
138.8 0.34630518234165064
139.0 0.3466986564299424
139.2 0.34712092130518235
139.4 0.3475047984644914
139.6 0.3478598848368522
139.8 0.3481861804222649
140.0 0.3486180422264875
140.2 0.349021113243762
140.4 0.3492802303262956
140.6 0.3496928982725528
140.8 0.35002879078694815
141.0 0.35035508637236085
141.2 0.3507389635316699
141.4 0.3511804222648752
141.6 0.35155470249520154
141.8 0.35189059500959696
142.0 0.3520921305182342
142.2 0.3524760076775432
142.4 0.35272552783109407
142.6 0.3531861804222649
142.8 0.35352207293666027
143.0 0.35383877159309024
143.2 0.3542226487523992
143.4 0.354616122840691
143.6 0.35516314779270636
143.8 0.3555854126679463
144.0 0.3558541266794626
144.2 0.3562092130518234
144.4 0.356573896353167
144.6 0.35701535508637233
144.8 0.35746641074856045
145.0 0.35790786948176584
145.2 0.3581957773512476
145.4 0.3585220729366603
145.6 0.3588003838771593
145.8 0.3592514395393474
146.0 0.3596065259117083
146.2 0.35998080614203454
146.4 0.3603071017274472
146.6 0.3606142034548945
146.8 0.36095009596928984
147.0 0.3612763915547025
147.2 0.36171785028790787
147.4 0.36201535508637234
147.6 0.36231285988483686
147.8 0.36270633397312857
148.0 0.3630518234165067
148.2 0.3634740882917466
