#\tau/\tau_{d} vs n_{pack}/N
0.0 0.0
0.2 0.001212534059945504
0.4 0.004584468664850136
0.6 0.006846049046321526
0.8 0.008930517711171662
1.0 0.010694822888283379
1.2 0.012425068119891008
1.4 0.01427792915531335
1.6 0.0160149863760218
1.8 0.01760899182561308
2.0 0.019291553133514987
2.2 0.020858310626703
2.4 0.02223433242506812
2.6 0.023732970027247956
2.8 0.025217983651226156
3.0 0.026559945504087194
3.2 0.02818119891008174
3.4 0.029611716621253406
3.6 0.03096049046321526
3.8 0.0322275204359673
4.0 0.03343324250681199
4.2 0.03462534059945504
4.4 0.03594005449591281
4.6 0.03701634877384196
4.8 0.03807901907356948
5.0 0.039250681198910085
5.2 0.040354223433242506
5.4 0.041382833787465934
5.6 0.042574931880108996
5.8 0.04358310626702997
6.0 0.04473433242506812
6.2 0.045722070844686644
6.4 0.046702997275204355
6.6 0.047738419618528614
6.8 0.04862397820163488
7.0 0.049543596730245235
7.2 0.0503542234332425
7.4 0.05133514986376022
7.6 0.052166212534059946
7.8 0.05303133514986376
8.0 0.05381471389645776
8.2 0.05463215258855586
8.4 0.05539509536784741
8.6 0.05617847411444142
8.8 0.05696866485013624
9.0 0.057670299727520434
9.2 0.058358310626703
9.4 0.059216621253405995
9.6 0.06004768392370572
9.8 0.06066076294277929
10.0 0.06135558583106267
10.2 0.061975476839237056
10.4 0.06260899182561308
10.6 0.06318119891008174
10.8 0.06385558583106267
11.0 0.06446185286103542
11.2 0.06508855585831062
11.4 0.06581062670299728
11.6 0.06637602179836512
11.8 0.06708446866485014
12.0 0.06766348773841963
12.2 0.06814713896457766
12.4 0.0686716621253406
12.6 0.06913487738419619
12.8 0.06970708446866486
13.0 0.07037465940054495
13.2 0.07089918256130791
13.4 0.07143051771117166
13.6 0.07192779291553134
13.8 0.07237057220708447
14.0 0.07282016348773843
14.2 0.0733174386920981
14.4 0.0737465940054496
14.6 0.07436648501362397
14.8 0.07476839237057221
15.0 0.07523841961852862
15.2 0.0757425068119891
15.4 0.07612397820163488
15.6 0.07659400544959129
15.8 0.07689373297002725
16.0 0.07731607629427793
16.2 0.07779291553133515
16.4 0.07820844686648502
16.6 0.07860354223433243
16.8 0.07894414168937329
17.0 0.07935967302452317
17.2 0.07971389645776567
17.4 0.0801975476839237
17.6 0.08074931880108992
17.8 0.08111035422343324
18.0 0.08153269754768391
18.2 0.0818732970027248
18.4 0.08228201634877384
18.6 0.0826907356948229
18.8 0.08313351498637601
19.0 0.08354904632152589
19.2 0.08393051771117166
19.4 0.084291553133515
19.6 0.08464577656675748
19.8 0.08505449591280653
20.0 0.0854700272479564
20.2 0.08583787465940054
20.4 0.08630108991825614
20.6 0.08675068119891009
20.8 0.08717983651226158
21.0 0.08755449591280653
21.2 0.08799727520435967
21.4 0.0885490463215259
21.6 0.08884877384196185
21.8 0.08926430517711172
22.0 0.0898024523160763
22.2 0.0902724795640327
22.4 0.09059945504087194
22.6 0.09100136239782015
22.8 0.09140326975476838
23.0 0.09180517711171662
23.2 0.09221389645776566
23.4 0.0926158038147139
23.6 0.09298365122615804
23.8 0.09335149863760218
24.0 0.09378746594005449
24.2 0.09420980926430518
24.4 0.09459128065395095
24.6 0.09504768392370572
24.8 0.09541553133514986
25.0 0.09583787465940054
25.2 0.09618528610354224
25.4 0.09658038147138966
25.6 0.09692098092643052
25.8 0.09730926430517711
26.0 0.0976907356948229
26.2 0.09814032697547685
26.4 0.09852179836512262
26.6 0.09900544959128066
26.8 0.09946866485013624
27.0 0.0998841961852861
27.2 0.10033378746594006
27.4 0.10076294277929156
27.6 0.10111716621253405
27.8 0.1014850136239782
28.0 0.1020299727520436
28.2 0.10240463215258856
28.4 0.10286784741144414
28.6 0.10332425068119891
28.8 0.10369891008174387
29.0 0.10409400544959128
29.2 0.10460490463215258
29.4 0.10502724795640328
29.6 0.10535422343324251
29.8 0.10567438692098091
30.0 0.10617847411444142
30.2 0.10661444141689373
30.4 0.10702316076294277
30.6 0.10749318801089919
30.8 0.10790871934604905
31.0 0.10837193460490463
31.2 0.10884877384196186
31.4 0.10923024523160763
31.6 0.10965258855585831
31.8 0.10998637602179837
32.0 0.11034059945504086
32.2 0.11081062670299728
32.4 0.11128065395095367
32.6 0.11162125340599456
32.8 0.1120708446866485
33.0 0.11247275204359672
33.2 0.11290190735694823
33.4 0.11326975476839238
33.6 0.11370572207084467
33.8 0.11411444141689372
34.0 0.11458446866485014
34.2 0.11497275204359672
34.4 0.11542915531335149
34.6 0.11585149863760219
34.8 0.11624659400544958
35.0 0.1167574931880109
35.2 0.11711852861035423
35.4 0.11756811989100818
35.6 0.11794959128065395
35.8 0.11840599455040872
36.0 0.11880108991825614
36.2 0.1191757493188011
36.4 0.11958446866485013
36.6 0.12008855585831063
36.8 0.12049727520435967
37.0 0.12093324250681199
37.2 0.12131471389645776
37.4 0.12175068119891008
37.6 0.12213896457765668
37.8 0.12258855585831062
38.0 0.1230517711171662
38.2 0.1233991825613079
38.4 0.12378746594005449
38.6 0.1242574931880109
38.8 0.12466621253405995
39.0 0.1250408719346049
39.2 0.1254700272479564
39.4 0.12587193460490462
39.6 0.12638283378746595
39.8 0.1267302452316076
40.0 0.12715258855585831
40.2 0.1275681198910082
40.4 0.12804495912806538
40.6 0.1284741144414169
40.8 0.1288215258855586
41.0 0.12924386920980926
41.2 0.12961852861035422
41.4 0.1300885558583106
41.6 0.13047683923705722
41.8 0.13083787465940053
42.0 0.13133514986376021
42.2 0.13177111716621254
42.4 0.1321934604904632
42.6 0.13267029972752042
42.8 0.13314032697547684
43.0 0.1335490463215259
43.2 0.1340258855585831
43.4 0.13444141689373296
43.6 0.1348365122615804
43.8 0.13533378746594005
44.0 0.13574931880108992
44.2 0.13610354223433244
44.4 0.13641689373297003
44.6 0.13690054495912807
44.8 0.1372683923705722
45.0 0.13764986376021798
45.2 0.13801771117166214
45.4 0.13847411444141688
45.6 0.13877384196185286
45.8 0.139216621253406
46.0 0.13964577656675747
46.2 0.14002043596730243
46.4 0.14036784741144415
46.6 0.1408174386920981
46.8 0.14121253405994552
47.0 0.1416348773841962
47.2 0.14202316076294277
47.4 0.14241825613079018
47.6 0.14287465940054495
47.8 0.143208446866485
48.0 0.14358310626702997
48.2 0.14396457765667575
48.4 0.14435286103542233
48.6 0.1447683923705722
48.8 0.1450817438692098
49.0 0.14546321525885558
49.2 0.1458991825613079
49.4 0.14631471389645775
49.6 0.1466893732970027
49.8 0.1471049046321526
50.0 0.1474931880108992
50.2 0.14790190735694822
50.4 0.14832425068119892
50.6 0.14884196185286103
50.8 0.1492234332425068
51.0 0.14964577656675748
51.2 0.1501566757493188
51.4 0.15049727520435968
51.6 0.15083106267029972
51.8 0.1512874659400545
52.0 0.1516008174386921
52.2 0.1519959128065395
52.4 0.15232970027247958
52.6 0.1526975476839237
52.8 0.15303814713896458
53.0 0.1533991825613079
53.2 0.15376702997275205
53.4 0.15408719346049046
53.6 0.15450953678474114
53.8 0.1548841961852861
54.0 0.15525885558583105
54.2 0.15569482288828337
54.4 0.15603542234332424
54.6 0.15633514986376024
54.8 0.15672343324250682
55.0 0.15713896457765666
55.2 0.15756130790190734
55.4 0.15797683923705721
55.6 0.15837193460490462
55.8 0.15874659400544958
56.0 0.159141689373297
56.2 0.1594891008174387
56.4 0.159850136239782
56.6 0.16019754768392372
56.8 0.16060626702997274
57.0 0.16091961852861036
57.2 0.1613147138964578
57.4 0.161641689373297
57.6 0.16198228882833787
57.8 0.16232288828337876
58.0 0.16271798365122617
58.2 0.16310626702997275
58.4 0.16349455040871935
58.6 0.16394414168937332
58.8 0.16431198910081743
59.0 0.16471389645776568
59.2 0.16507493188010897
59.4 0.1654359673024523
59.6 0.16587193460490465
59.8 0.16617847411444142
60.0 0.16659400544959127
60.2 0.16698228882833788
60.4 0.16740463215258855
60.6 0.16775885558583106
60.8 0.16815395095367847
61.0 0.16850136239782018
61.2 0.16888283378746594
61.4 0.1692983651226158
61.6 0.1696798365122616
61.8 0.17004087193460488
62.0 0.17040871934604904
62.2 0.17073569482288828
62.4 0.1710490463215259
62.6 0.17140326975476838
62.8 0.17179155313351496
63.0 0.1722343324250681
63.2 0.17265667574931878
63.4 0.17311307901907355
63.6 0.1734809264305177
63.8 0.17393051771117166
64.0 0.17431880108991826
64.2 0.17481607629427792
64.4 0.17517029972752046
64.6 0.1755790190735695
64.8 0.175933242506812
65.0 0.1762806539509537
65.2 0.17668256130790191
65.4 0.17705040871934608
65.6 0.17743869209809265
65.8 0.1778814713896458
66.0 0.1782425068119891
66.2 0.17862397820163486
66.4 0.17901226158038144
66.6 0.17927792915531335
66.8 0.17980245231607628
67.0 0.1801975476839237
67.2 0.1805449591280654
67.4 0.18090599455040873
67.6 0.1813351498637602
67.8 0.18170299727520436
68.0 0.18216621253405993
68.2 0.1824659400544959
68.4 0.18286784741144413
68.6 0.1832493188010899
68.8 0.18356948228882836
69.0 0.1839373297002725
69.2 0.18435286103542237
69.4 0.18472070844686647
69.6 0.18514305177111715
69.8 0.1854291553133515
70.0 0.18577656675749318
70.2 0.18615803814713897
70.4 0.18645776566757494
70.6 0.18675749318801088
70.8 0.18720708446866485
71.0 0.18763623978201635
71.2 0.18800408719346048
71.4 0.18842643051771116
71.6 0.1888351498637602
71.8 0.18912806539509536
72.0 0.18952316076294276
72.2 0.1899659400544959
72.4 0.19038147138964578
72.6 0.19083787465940055
72.8 0.1912125340599455
73.0 0.19163487738419618
73.2 0.19202997275204362
73.4 0.1924182561307902
73.6 0.19292234332425068
73.8 0.19336512261580382
74.0 0.19376702997275203
74.2 0.19412125340599456
74.4 0.19457084468664848
74.6 0.195
74.8 0.1953678474114441
75.0 0.19576294277929154
75.2 0.1961307901907357
75.4 0.19651907356948228
75.6 0.1969209809264305
75.8 0.19731607629427791
76.0 0.19762942779291554
76.2 0.19794959128065392
76.4 0.19835831062670298
76.6 0.19876702997275203
76.8 0.1990326975476839
77.0 0.19943460490463216
77.2 0.1998365122615804
77.4 0.20025885558583106
77.6 0.20059945504087193
77.8 0.20091280653950952
78.0 0.20120572207084467
78.2 0.20166212534059944
78.4 0.20209128065395096
78.6 0.20253405994550408
78.8 0.2029223433242507
79.0 0.20335831062670298
79.2 0.20376021798365124
79.4 0.20416212534059944
79.6 0.20466621253405992
79.8 0.20503405994550408
80.0 0.20539509536784742
80.2 0.20582425068119892
80.4 0.20623978201634877
80.6 0.20664850136239782
80.8 0.2070299727520436
81.0 0.20739782016348773
81.2 0.20782697547683923
81.4 0.2082425068119891
81.6 0.20865122615803816
81.8 0.20903269754768392
82.0 0.2094141689373297
82.2 0.20977520435967303
82.4 0.210149863760218
82.6 0.21046321525885558
82.8 0.2108855585831063
83.0 0.21131471389645778
83.2 0.21172343324250684
83.4 0.21208446866485012
83.6 0.21242506811989104
83.8 0.21282697547683924
84.0 0.21318119891008172
84.2 0.21354904632152588
84.4 0.2139782016348774
84.6 0.21431198910081745
84.8 0.2146798365122616
85.0 0.21495231607629428
85.2 0.21527929155313352
85.4 0.21561307901907356
85.6 0.21603542234332426
85.8 0.21644414168937331
86.0 0.2167983651226158
86.2 0.2170708446866485
86.4 0.21752724795640327
86.6 0.21789509536784743
86.8 0.21829700272479563
87.0 0.2186376021798365
87.2 0.21899863760217983
87.4 0.21935286103542237
87.6 0.21972752043596733
87.8 0.220149863760218
88.0 0.22045640326975477
88.2 0.22083106267029973
88.4 0.22123297002724798
88.6 0.22163487738419618
88.8 0.22199591280653952
89.0 0.22242506811989102
89.2 0.22283378746594007
89.4 0.22321525885558582
89.6 0.22350136239782017
89.8 0.22388964577656675
90.0 0.22432561307901908
90.2 0.2247275204359673
90.4 0.22508174386920982
90.6 0.2253950953678474
90.8 0.22577656675749316
91.0 0.22615122615803818
91.2 0.22649182561307904
91.4 0.22684604904632152
91.6 0.2271866485013624
91.8 0.22766348773841963
92.0 0.22802452316076294
92.2 0.228433242506812
92.4 0.2287806539509537
92.6 0.22915531335149864
92.8 0.22949591280653953
93.0 0.22993188010899182
93.2 0.2303474114441417
93.4 0.23076975476839237
93.6 0.23118528610354222
93.8 0.23160762942779292
94.0 0.23188692098092645
94.2 0.23230926430517712
94.4 0.2327316076294278
94.6 0.23316076294277932
94.8 0.23350136239782018
95.0 0.23382152588555857
95.2 0.23418937329700273
95.4 0.2346117166212534
95.6 0.23501362397820164
95.8 0.23544277929155313
96.0 0.2358310626702997
96.2 0.23615803814713895
96.4 0.23657356948228883
96.6 0.23697547683923706
96.8 0.23737738419618531
97.0 0.2377724795640327
97.2 0.23810626702997276
97.4 0.23853542234332425
97.6 0.2389441416893733
97.8 0.23934604904632154
98.0 0.2396798365122616
98.2 0.2399659400544959
98.4 0.2403065395095368
98.6 0.24065395095367847
98.8 0.24098773841961854
99.0 0.24134196185286105
99.2 0.24164850136239782
99.4 0.2420299727520436
99.6 0.24241825613079018
99.8 0.24281335149863761
100.0 0.24321525885558581
100.2 0.2436307901907357
100.4 0.2439509536784741
100.6 0.2443801089918256
100.8 0.24472070844686647
101.0 0.24508855585831063
101.2 0.24550408719346048
101.4 0.245933242506812
101.6 0.2464032697547684
101.8 0.24677111716621256
102.0 0.24715940054495913
102.2 0.24767029972752044
102.4 0.24799046321525886
102.6 0.24841280653950953
102.8 0.24873978201634878
103.0 0.24910762942779294
103.2 0.2494141689373297
103.4 0.24982288828337876
103.6 0.25019073569482286
103.8 0.25053133514986375
104.0 0.2508514986376022
104.2 0.25121253405994554
104.4 0.2515735694822888
104.6 0.2520504087193461
104.8 0.25241144414168937
105.0 0.252799727520436
105.2 0.2531198910081744
105.4 0.25344686648501363
105.6 0.25380790190735697
105.8 0.25416212534059945
106.0 0.254516348773842
106.2 0.25487738419618533
106.4 0.2552656675749319
106.6 0.25564713896457764
106.8 0.2559673024523161
107.0 0.2562738419618529
107.2 0.25662806539509536
107.4 0.2569141689373297
107.6 0.2573024523160763
107.8 0.2576566757493188
108.0 0.2580790190735695
108.2 0.25841280653950954
108.4 0.2587534059945504
108.6 0.25916212534059946
108.8 0.2595299727520436
109.0 0.2598705722070845
109.2 0.2601839237057221
109.4 0.2604632152588556
109.6 0.260783378746594
109.8 0.2611989100817439
110.0 0.26153269754768393
110.2 0.26194141689373296
110.4 0.26224114441416896
110.6 0.26263623978201633
110.8 0.2629291553133515
111.0 0.2632629427792915
111.2 0.26369209809264305
111.4 0.2640871934604905
111.6 0.2644141689373297
111.8 0.26478201634877385
112.0 0.26514305177111713
112.2 0.26539509536784744
112.4 0.2657901907356948
112.6 0.26608991825613076
112.8 0.26650544959128064
113.0 0.2669277929155313
113.2 0.26732970027247954
113.4 0.26775885558583107
113.6 0.2681198910081744
113.8 0.26844686648501365
114.0 0.26891689373297
114.2 0.2692847411444142
114.4 0.2695980926430518
114.6 0.2699523160762943
114.8 0.27029291553133517
115.0 0.2706539509536785
115.2 0.27102861035422343
115.4 0.2713623978201635
115.6 0.2716825613079019
115.8 0.2721389645776567
116.0 0.2724182561307902
116.2 0.27280653950953676
116.4 0.27319482288828334
116.6 0.2736035422343324
116.8 0.27393732970027246
117.0 0.2743732970027248
117.2 0.27474114441416897
117.4 0.27513623978201635
117.6 0.27567438692098095
117.8 0.2760354223433243
118.0 0.2763896457765668
118.2 0.27670299727520437
118.4 0.27708446866485015
118.6 0.27735694822888285
118.8 0.2776226158038147
119.0 0.27794277929155314
119.2 0.2783378746594006
119.4 0.2787125340599455
119.6 0.27903950953678475
119.8 0.27944822888283377
120.0 0.2798024523160763
120.2 0.280149863760218
120.4 0.2805517711171662
120.6 0.28091961852861036
120.8 0.2812874659400545
121.0 0.28161444141689373
121.2 0.2819959128065395
121.4 0.282350136239782
121.6 0.2826158038147139
121.8 0.28301089918256134
122.0 0.2833310626702997
122.2 0.2836852861035422
122.4 0.2840871934604905
122.6 0.28448910081743867
122.8 0.28485694822888286
123.0 0.2851975476839237
123.2 0.28545640326975474
123.4 0.28579700272479563
123.6 0.28616485013623977
123.8 0.286566757493188
124.0 0.28682561307901905
124.2 0.2871798365122616
124.4 0.28760899182561306
124.6 0.28794959128065395
124.8 0.288283378746594
125.0 0.2886512261580382
125.2 0.2889441416893733
125.4 0.28921662125340597
125.6 0.2896049046321526
125.8 0.2899591280653951
126.0 0.2902929155313351
126.2 0.290633514986376
126.4 0.29099455040871935
126.6 0.2913964577656676
126.8 0.29185286103542235
127.0 0.2921798365122616
127.2 0.2925272479564033
127.4 0.2928950953678474
127.6 0.2931267029972752
127.8 0.29346049046321526
128.0 0.2938692098092643
128.2 0.2941689373297003
128.4 0.2945367847411444
128.6 0.29489782016348776
128.8 0.2952043596730245
129.0 0.2955517711171662
129.2 0.29580381471389644
129.4 0.2961239782016349
129.6 0.2964577656675749
129.8 0.2967983651226158
130.0 0.29712534059945506
130.2 0.2975204359673025
130.4 0.2978678474114441
130.6 0.29822888283378746
130.8 0.2985899182561308
131.0 0.29893051771117163
131.2 0.29928474114441417
131.4 0.29962534059945506
131.6 0.2999931880108992
131.8 0.3003337874659401
132.0 0.300633514986376
132.2 0.30102861035422346
132.4 0.30134196185286105
132.6 0.3016689373297003
132.8 0.3019891008174387
133.0 0.30237057220708446
133.2 0.30269073569482285
133.4 0.3030381471389646
133.6 0.30337874659400543
133.8 0.303767029972752
134.0 0.3041485013623978
134.2 0.3044891008174387
134.4 0.3048841961852861
134.6 0.30514986376021797
134.8 0.305483651226158
135.0 0.30587193460490464
135.2 0.3062193460490463
135.4 0.306566757493188
135.6 0.3069482288828338
135.8 0.30727520435967304
136.0 0.30752724795640324
136.2 0.307874659400545
136.4 0.30816757493188013
136.6 0.3084877384196185
136.8 0.30885558583106265
137.0 0.3091757493188011
137.2 0.30954359673024523
137.4 0.30993869209809266
137.6 0.3103542234332425
137.8 0.3106948228882834
138.0 0.31097411444141687
138.2 0.31130790190735697
138.4 0.31159400544959126
138.6 0.3120231607629428
138.8 0.31235013623978203
139.0 0.3127316076294278
139.2 0.3130790190735695
139.4 0.31340599455040874
139.6 0.31369209809264303
139.8 0.3140326975476839
140.0 0.31442779291553136
140.2 0.31482288828337873
140.4 0.31508855585831064
140.6 0.3154223433242507
140.8 0.31577656675749316
141.0 0.3160490463215259
141.2 0.31643051771117164
141.4 0.31677111716621253
141.6 0.317016348773842
141.8 0.317425068119891
142.0 0.31771798365122617
142.2 0.3180517711171662
142.4 0.31841280653950954
142.6 0.31881471389645777
142.8 0.31916212534059946
143.0 0.31950953678474114
143.2 0.3198773841961853
143.4 0.32025204359673026
143.6 0.3205790190735695
143.8 0.32091280653950954
144.0 0.3212193460490463
144.2 0.3215871934604905
144.4 0.32193460490463216
144.6 0.3222070844686648
144.8 0.322574931880109
145.0 0.32290871934604903
145.2 0.3232425068119891
145.4 0.32356948228882837
145.6 0.3238692098092643
145.8 0.32413487738419616
146.0 0.3244754768392371
146.2 0.32480245231607635
146.4 0.32525204359673027
146.6 0.32556539509536786
146.8 0.32584468664850136
147.0 0.3262193460490463
147.2 0.32650544959128064
147.4 0.3268119891008175
147.6 0.327200272479564
147.8 0.3275476839237057
148.0 0.32783378746594005
148.2 0.3280790190735695
