#\tau/\tau_{d} vs n_{pack}/N
0.0 0.0
0.2 0.0009038461538461538
0.4 0.00401923076923077
0.6 0.0064423076923076925
0.8 0.008471153846153845
1.0 0.010144230769230768
1.2 0.011826923076923077
1.4 0.013576923076923077
1.6 0.015269230769230768
1.8 0.016846153846153848
2.0 0.018471153846153845
2.2 0.019846153846153847
2.4 0.02125
2.6 0.022634615384615385
2.8 0.024067307692307693
3.0 0.025423076923076923
3.2 0.02660576923076923
3.4 0.027903846153846154
3.6 0.02893269230769231
3.8 0.03014423076923077
4.0 0.031375
4.2 0.03252884615384616
4.4 0.0336826923076923
4.6 0.03478846153846154
4.8 0.03576923076923077
5.0 0.03664423076923077
5.2 0.03772115384615385
5.4 0.03875
5.6 0.03958653846153846
5.8 0.04055769230769231
6.0 0.04164423076923077
6.2 0.042817307692307696
6.4 0.043625
6.6 0.04447115384615385
6.8 0.045355769230769234
7.0 0.046163461538461535
7.2 0.04702884615384615
7.4 0.047769230769230765
7.6 0.048567307692307694
7.8 0.049298076923076924
8.0 0.05014423076923077
8.2 0.050903846153846154
8.4 0.05174038461538461
8.6 0.052413461538461534
8.8 0.05295192307692307
9.0 0.05361538461538461
9.2 0.054288461538461535
9.4 0.054884615384615386
9.6 0.05555769230769231
9.8 0.05626923076923077
10.0 0.056826923076923073
10.2 0.05752884615384615
10.4 0.058144230769230774
10.6 0.05871153846153846
10.8 0.059298076923076926
11.0 0.05975
11.2 0.060307692307692305
11.4 0.06082692307692308
11.6 0.06149038461538461
11.8 0.06205769230769231
12.0 0.06263461538461539
12.2 0.06314423076923077
12.4 0.06359615384615384
12.6 0.06408653846153846
12.8 0.06451923076923077
13.0 0.06498076923076923
13.2 0.06560576923076923
13.4 0.06600961538461539
13.6 0.06653846153846155
13.8 0.06695192307692308
14.0 0.06721153846153846
14.2 0.067625
14.4 0.06806730769230769
14.6 0.06851923076923078
14.8 0.06900961538461538
15.0 0.069375
15.2 0.06978846153846154
15.4 0.07011538461538462
15.6 0.07049038461538461
15.8 0.07091346153846154
16.0 0.07134615384615385
16.2 0.07170192307692308
16.4 0.07210576923076922
16.6 0.07252884615384615
16.8 0.07293269230769231
17.0 0.07340384615384615
17.2 0.0738173076923077
17.4 0.07413461538461538
17.6 0.07455769230769231
17.8 0.07502884615384615
18.0 0.07545192307692307
18.2 0.07579807692307693
18.4 0.07613461538461538
18.6 0.0764326923076923
18.8 0.07677884615384616
19.0 0.077125
19.2 0.07758653846153846
19.4 0.07793269230769231
19.6 0.0783076923076923
19.8 0.07872115384615384
20.0 0.07920192307692307
20.2 0.07953846153846154
20.4 0.07984615384615384
20.6 0.08013461538461537
20.8 0.08053846153846153
21.0 0.08097115384615386
21.2 0.08138461538461537
21.4 0.08178846153846153
21.6 0.08211538461538462
21.8 0.08238461538461538
22.0 0.08283653846153846
22.2 0.08327884615384615
22.4 0.08365384615384615
22.6 0.08404807692307692
22.8 0.08440384615384616
23.0 0.08474999999999999
23.2 0.08512499999999999
23.4 0.08554807692307692
23.6 0.08597115384615385
23.8 0.08635576923076924
24.0 0.08670192307692308
24.2 0.08704807692307692
24.4 0.08734615384615385
24.6 0.08771153846153845
24.8 0.08802884615384615
25.0 0.08833653846153845
25.2 0.08883653846153847
25.4 0.08926923076923077
25.6 0.08964423076923078
25.8 0.0900576923076923
26.0 0.09041346153846154
26.2 0.09084615384615384
26.4 0.09120192307692308
26.6 0.09160576923076923
26.8 0.09191346153846154
27.0 0.09233653846153846
27.2 0.09278846153846153
27.4 0.09314423076923077
27.6 0.0935
27.8 0.09397115384615384
28.0 0.09439423076923077
28.2 0.09479807692307693
28.4 0.09512499999999999
28.6 0.09557692307692309
28.8 0.09596153846153847
29.0 0.09629807692307692
29.2 0.0966826923076923
29.4 0.09711538461538462
29.6 0.09752884615384616
29.8 0.09791346153846155
30.0 0.09822115384615385
30.2 0.09864423076923076
30.4 0.09900961538461539
30.6 0.09951923076923076
30.8 0.09975961538461538
31.0 0.10022115384615385
31.2 0.10050961538461538
31.4 0.1008173076923077
31.6 0.1011826923076923
31.8 0.10140384615384615
32.0 0.10174038461538462
32.2 0.10205769230769231
32.4 0.10237500000000001
32.6 0.10279807692307692
32.8 0.1031923076923077
33.0 0.10364423076923077
33.2 0.10405769230769231
33.4 0.10440384615384617
33.6 0.1048076923076923
33.8 0.10522115384615384
34.0 0.10564423076923077
34.2 0.10597115384615385
34.4 0.106375
34.6 0.10674038461538463
34.8 0.10713461538461538
35.0 0.10757692307692307
35.2 0.10792307692307693
35.4 0.10829807692307693
35.6 0.10865384615384616
35.8 0.1090576923076923
36.0 0.10950961538461539
36.2 0.11010576923076924
36.4 0.1105
36.6 0.1109326923076923
36.8 0.11138461538461537
37.0 0.11175961538461537
37.2 0.11210576923076923
37.4 0.11254807692307692
37.6 0.11290384615384616
37.8 0.11310576923076923
38.0 0.11350961538461539
38.2 0.11398076923076923
38.4 0.11429807692307692
38.6 0.11472115384615385
38.8 0.11527884615384615
39.0 0.11572115384615385
39.2 0.11604807692307693
39.4 0.11648076923076923
39.6 0.11696153846153846
39.8 0.11735576923076924
40.0 0.1179326923076923
40.2 0.11826923076923077
40.4 0.11870192307692308
40.6 0.11899038461538462
40.8 0.11939423076923078
41.0 0.11978846153846154
41.2 0.1202596153846154
41.4 0.1206826923076923
41.6 0.12107692307692307
41.8 0.1214423076923077
42.0 0.12183653846153845
42.2 0.12225
42.4 0.12268269230769231
42.6 0.12305769230769231
42.8 0.12352884615384616
43.0 0.12381730769230768
43.2 0.12416346153846154
43.4 0.12460576923076923
43.6 0.12500961538461539
43.8 0.12549038461538461
44.0 0.12587500000000001
44.2 0.12628846153846154
44.4 0.12665384615384614
44.6 0.1270673076923077
44.8 0.12749038461538462
45.0 0.12791346153846153
45.2 0.12827884615384616
45.4 0.12866346153846153
45.6 0.1291826923076923
45.8 0.12953846153846155
46.0 0.12995192307692308
46.2 0.13034615384615386
46.4 0.13080769230769232
46.6 0.13121153846153846
46.8 0.13175
47.0 0.13220192307692308
47.2 0.13260576923076925
47.4 0.13292307692307692
47.6 0.13326923076923078
47.8 0.13374038461538462
48.0 0.13408653846153848
48.2 0.13434615384615384
48.4 0.13475
48.6 0.13527884615384614
48.8 0.1356153846153846
49.0 0.1359326923076923
49.2 0.13616346153846154
49.4 0.1366826923076923
49.6 0.13709615384615384
49.8 0.13759615384615384
50.0 0.13797115384615385
50.2 0.13834615384615384
50.4 0.1388076923076923
50.6 0.13909615384615384
50.8 0.13952884615384614
51.0 0.13981730769230769
51.2 0.14015384615384616
51.4 0.1405576923076923
51.6 0.1409423076923077
51.8 0.141375
52.0 0.14167307692307693
52.2 0.14214423076923077
52.4 0.14248076923076922
52.6 0.14289423076923077
52.8 0.14323076923076924
53.0 0.14367307692307693
53.2 0.14411538461538462
53.4 0.14453846153846153
53.6 0.14485576923076923
53.8 0.14533653846153846
54.0 0.14579807692307692
54.2 0.14622115384615383
54.4 0.1465576923076923
54.6 0.146875
54.8 0.14727884615384615
55.0 0.1476923076923077
55.2 0.14795192307692306
55.4 0.148375
55.6 0.14879807692307692
55.8 0.14923076923076922
56.0 0.14965384615384614
56.2 0.15002884615384615
56.4 0.15034615384615385
56.6 0.15084615384615385
56.8 0.1511923076923077
57.0 0.15154807692307692
57.2 0.1519230769230769
57.4 0.15225961538461538
57.6 0.15259615384615385
57.8 0.15302884615384615
58.0 0.1534903846153846
58.2 0.15387499999999998
58.4 0.1543076923076923
58.6 0.15472115384615384
58.8 0.15513461538461537
59.0 0.15547115384615384
59.2 0.15578846153846154
59.4 0.15611538461538463
59.6 0.15647115384615384
59.8 0.1567596153846154
60.0 0.15701923076923077
60.2 0.15735576923076924
60.4 0.15776923076923077
60.6 0.1581923076923077
60.8 0.15847115384615384
61.0 0.15889423076923076
61.2 0.15924038461538462
61.4 0.15958653846153845
61.6 0.1599423076923077
61.8 0.16030769230769232
62.0 0.16069230769230772
62.2 0.16121153846153846
62.4 0.1615673076923077
62.6 0.161875
62.8 0.16222115384615385
63.0 0.1628173076923077
63.2 0.1632596153846154
63.4 0.16366346153846156
63.6 0.1640769230769231
63.8 0.1644326923076923
64.0 0.1647596153846154
64.2 0.16514423076923077
64.4 0.16553846153846155
64.6 0.16583653846153848
64.8 0.166125
65.0 0.16647115384615385
65.2 0.16676923076923078
65.4 0.16717307692307692
65.6 0.1675
65.8 0.16795192307692308
66.0 0.16835576923076925
66.2 0.1687596153846154
66.4 0.16917307692307693
66.6 0.16959615384615387
66.8 0.16988461538461538
67.0 0.17025961538461537
67.2 0.1706923076923077
67.4 0.17097115384615386
67.6 0.17134615384615384
67.8 0.17170192307692309
68.0 0.1720576923076923
68.2 0.17244230769230767
68.4 0.17300000000000001
68.6 0.17339423076923077
68.8 0.1738269230769231
69.0 0.17427884615384617
69.2 0.1745576923076923
69.4 0.17495192307692306
69.6 0.17535576923076923
69.8 0.1758173076923077
70.0 0.17629807692307695
70.2 0.1768076923076923
70.4 0.17713461538461536
70.6 0.1775769230769231
70.8 0.17795192307692306
71.0 0.17841346153846152
71.2 0.17875
71.4 0.17907692307692308
71.6 0.1794903846153846
71.8 0.17985576923076924
72.0 0.18027884615384615
72.2 0.18065384615384616
72.4 0.18103846153846154
72.6 0.1813173076923077
72.8 0.18178846153846157
73.0 0.1821153846153846
73.2 0.18241346153846155
73.4 0.18285576923076924
73.6 0.18311538461538462
73.8 0.18353846153846154
74.0 0.18389423076923075
74.2 0.18426923076923077
74.4 0.18479807692307693
74.6 0.18514423076923076
74.8 0.18559615384615383
75.0 0.18585576923076924
75.2 0.18619230769230768
75.4 0.18654807692307693
75.6 0.18690384615384617
75.8 0.18732692307692309
76.0 0.18765384615384614
76.2 0.1880480769230769
76.4 0.18847115384615384
76.6 0.18879807692307693
76.8 0.18910576923076924
77.0 0.189375
77.2 0.18975
77.4 0.1901923076923077
77.6 0.1905576923076923
77.8 0.19090384615384615
78.0 0.19130769230769232
78.2 0.19170192307692308
78.4 0.1920673076923077
78.6 0.19242307692307692
78.8 0.1928269230769231
79.0 0.19318269230769233
79.2 0.1936442307692308
79.4 0.1939903846153846
79.6 0.194375
79.8 0.1947596153846154
80.0 0.19521153846153846
80.2 0.19563461538461538
80.4 0.19598076923076924
80.6 0.196375
80.8 0.1966923076923077
81.0 0.19705769230769232
81.2 0.19743269230769228
81.4 0.19772115384615385
81.6 0.1980480769230769
81.8 0.19846153846153847
82.0 0.19883653846153845
82.2 0.19917307692307692
82.4 0.19964423076923077
82.6 0.19997115384615383
82.8 0.20036538461538464
83.0 0.20078846153846153
83.2 0.201125
83.4 0.20150961538461537
83.6 0.201875
83.8 0.20223076923076924
84.0 0.20263461538461539
84.2 0.20295192307692309
84.4 0.2033173076923077
84.6 0.2036826923076923
84.8 0.2039519230769231
85.0 0.20441346153846154
85.2 0.20482692307692307
85.4 0.20517307692307693
85.6 0.20559615384615385
85.8 0.20599038461538463
86.0 0.20640384615384616
86.2 0.20678846153846156
86.4 0.20723076923076925
86.6 0.20751923076923076
86.8 0.2079230769230769
87.0 0.20841346153846152
87.2 0.20880769230769233
87.4 0.20927884615384618
87.6 0.20963461538461536
87.8 0.20991346153846155
88.0 0.21025961538461538
88.2 0.21059615384615385
88.4 0.2108653846153846
88.6 0.21120192307692306
88.8 0.21146153846153848
89.0 0.21184615384615385
89.2 0.21221153846153848
89.4 0.2126153846153846
89.6 0.21290384615384614
89.8 0.21326923076923077
90.0 0.21361538461538462
90.2 0.21392307692307694
90.4 0.21442307692307694
90.6 0.21477884615384613
90.8 0.21500961538461538
91.0 0.21534615384615385
91.2 0.21568269230769233
91.4 0.21607692307692308
91.6 0.2164423076923077
91.8 0.21676923076923077
92.0 0.21720192307692307
92.2 0.2175576923076923
92.4 0.21798076923076923
92.6 0.21835576923076924
92.8 0.21870192307692307
93.0 0.21900961538461539
93.2 0.21928846153846154
93.4 0.219625
93.6 0.220125
93.8 0.22046153846153846
94.0 0.22075
94.2 0.22103846153846152
94.4 0.2213653846153846
94.6 0.22164423076923076
94.8 0.22210576923076925
95.0 0.22260576923076922
95.2 0.22298076923076923
95.4 0.223375
95.6 0.22376923076923078
95.8 0.22411538461538463
96.0 0.2244807692307692
96.2 0.22478846153846152
96.4 0.22520192307692308
96.6 0.22549038461538462
96.8 0.2258653846153846
97.0 0.2263173076923077
97.2 0.22670192307692308
97.4 0.22696153846153844
97.6 0.22727884615384614
97.8 0.22767307692307692
98.0 0.22803846153846155
98.2 0.22829807692307694
98.4 0.2286442307692308
98.6 0.22891346153846154
98.8 0.22923076923076924
99.0 0.22960576923076925
99.2 0.22988461538461538
99.4 0.23031730769230768
99.6 0.23063461538461538
99.8 0.23106730769230768
100.0 0.2315576923076923
100.2 0.23190384615384615
100.4 0.23233653846153846
100.6 0.23264423076923077
100.8 0.2329423076923077
101.0 0.23322115384615383
101.2 0.23351923076923076
101.4 0.23399999999999999
101.6 0.2342596153846154
101.8 0.23468269230769231
102.0 0.23502884615384617
102.2 0.23533653846153846
102.4 0.23564423076923077
102.6 0.23593269230769232
102.8 0.23627884615384617
103.0 0.2366346153846154
103.2 0.2370673076923077
103.4 0.23740384615384616
103.6 0.23782692307692307
103.8 0.23816346153846155
104.0 0.23842307692307693
104.2 0.23885576923076923
104.4 0.23920192307692306
104.6 0.2395
104.8 0.2399326923076923
105.0 0.24033653846153846
105.2 0.24068269230769232
105.4 0.24102884615384615
105.6 0.24146153846153848
105.8 0.24180769230769228
106.0 0.2420673076923077
106.2 0.24244230769230768
106.4 0.24283653846153846
106.6 0.24318269230769232
106.8 0.24347115384615386
107.0 0.24383653846153844
107.2 0.2441826923076923
107.4 0.24453846153846154
107.6 0.24486538461538462
107.8 0.2453173076923077
108.0 0.24566346153846155
108.2 0.24588461538461537
108.4 0.24634615384615383
108.6 0.24669230769230768
108.8 0.24708653846153847
109.0 0.24735576923076924
109.2 0.24768269230769233
109.4 0.24801923076923077
109.6 0.2483653846153846
109.8 0.24876923076923077
110.0 0.2490576923076923
110.2 0.24946153846153846
110.4 0.24983653846153847
110.6 0.2501923076923077
110.8 0.2505288461538462
111.0 0.2507884615384615
111.2 0.2510769230769231
111.4 0.2513942307692308
111.6 0.25175000000000003
111.8 0.25209615384615386
112.0 0.2524423076923077
112.2 0.2528846153846154
112.4 0.25321153846153843
112.6 0.2535576923076923
112.8 0.25390384615384615
113.0 0.25427884615384616
113.2 0.2546826923076923
113.4 0.2550769230769231
113.6 0.25535576923076925
113.8 0.25576923076923075
114.0 0.2562019230769231
114.2 0.25653846153846155
114.4 0.25696153846153846
114.6 0.2572596153846154
114.8 0.2576346153846154
115.0 0.2580096153846154
115.2 0.2582307692307692
115.4 0.2586057692307692
115.6 0.2588557692307692
115.8 0.2591730769230769
116.0 0.25953846153846155
116.2 0.2600192307692308
116.4 0.26034615384615384
116.6 0.2606538461538462
116.8 0.2609230769230769
117.0 0.26121153846153844
117.2 0.2616538461538461
117.4 0.26198076923076924
117.6 0.2625192307692308
117.8 0.2628076923076923
118.0 0.2631538461538462
118.2 0.2635673076923077
118.4 0.2639134615384615
118.6 0.26419230769230767
118.8 0.26448076923076924
119.0 0.2647980769230769
119.2 0.2651730769230769
119.4 0.2654903846153846
119.6 0.26582692307692307
119.8 0.26608653846153846
120.0 0.2664711538461539
120.2 0.2668846153846154
120.4 0.26725
120.6 0.2675673076923077
120.8 0.2678846153846154
121.0 0.26817307692307696
121.2 0.2685096153846154
121.4 0.26892307692307693
121.6 0.2692980769230769
121.8 0.26958653846153846
122.0 0.27
122.2 0.27029807692307695
122.4 0.27053846153846156
122.6 0.2709134615384615
122.8 0.2713269230769231
123.0 0.27161538461538465
123.2 0.272
123.4 0.27234615384615385
123.6 0.27278846153846154
123.8 0.27310576923076924
124.0 0.2734423076923077
124.2 0.2737788461538462
124.4 0.2740961538461539
124.6 0.2743846153846154
124.8 0.27481730769230767
125.0 0.27515384615384614
125.2 0.27542307692307694
125.4 0.27585576923076927
125.6 0.27622115384615387
125.8 0.27660576923076924
126.0 0.27699999999999997
126.2 0.2774134615384616
126.4 0.27771153846153845
126.6 0.2779326923076923
126.8 0.27828846153846154
127.0 0.27852884615384615
127.2 0.27892307692307694
127.4 0.2793269230769231
127.6 0.2797307692307692
127.8 0.27997115384615384
128.0 0.28021153846153846
128.2 0.2805673076923077
128.4 0.28090384615384617
128.6 0.28126923076923077
128.8 0.2815673076923077
129.0 0.2818076923076923
129.2 0.2820576923076923
129.4 0.2824519230769231
129.6 0.2827403846153846
129.8 0.28310576923076924
130.0 0.28341346153846153
130.2 0.28375961538461536
130.4 0.2840384615384615
130.6 0.2843076923076923
130.8 0.2846730769230769
131.0 0.2850865384615384
131.2 0.2853846153846154
131.4 0.28578846153846155
131.6 0.286125
131.8 0.28639423076923076
132.0 0.2866346153846154
132.2 0.28691346153846153
132.4 0.28727884615384613
132.6 0.2876153846153846
132.8 0.2880192307692308
133.0 0.2883173076923077
133.2 0.2886346153846154
133.4 0.2888269230769231
133.6 0.2890673076923077
133.8 0.2894423076923077
134.0 0.28975
134.2 0.2900576923076923
134.4 0.29036538461538464
134.6 0.2906730769230769
134.8 0.29101923076923075
135.0 0.29141346153846154
135.2 0.29164423076923074
135.4 0.2919903846153846
135.6 0.2922980769230769
135.8 0.2926923076923077
136.0 0.29302884615384617
136.2 0.2932980769230769
136.4 0.29360576923076925
136.6 0.2940865384615385
136.8 0.2944326923076923
137.0 0.29477884615384614
137.2 0.29507692307692307
137.4 0.2954230769230769
137.6 0.2957403846153846
137.8 0.29597115384615386
138.0 0.2962980769230769
138.2 0.29654807692307694
138.4 0.2968846153846154
138.6 0.2973076923076923
138.8 0.29764423076923074
139.0 0.29803846153846153
139.2 0.29840384615384613
139.4 0.2987980769230769
139.6 0.29912500000000003
139.8 0.2993461538461538
140.0 0.2996634615384615
140.2 0.2999807692307692
140.4 0.30028846153846156
140.6 0.3005576923076923
140.8 0.30099038461538463
141.0 0.3013461538461538
141.2 0.30167307692307693
141.4 0.30192307692307696
141.6 0.30220192307692306
141.8 0.30258653846153843
142.0 0.30290384615384613
142.2 0.30328846153846156
142.4 0.3037115384615385
142.6 0.30403846153846154
142.8 0.3044326923076923
143.0 0.3048076923076923
143.2 0.30517307692307694
143.4 0.3054230769230769
143.6 0.3056634615384615
143.8 0.3060096153846154
144.0 0.30628846153846156
144.2 0.3066153846153846
144.4 0.306875
144.6 0.30715384615384617
144.8 0.30753846153846154
145.0 0.3078942307692307
145.2 0.30824999999999997
145.4 0.308625
145.6 0.3089326923076923
145.8 0.30923076923076925
146.0 0.3095576923076923
146.2 0.309875
146.4 0.3103076923076923
146.6 0.31056730769230767
146.8 0.31085576923076924
147.0 0.31119230769230766
147.2 0.3114903846153846
147.4 0.3118076923076923
147.6 0.3121826923076923
147.8 0.31254807692307696
148.0 0.31303846153846154
148.2 0.31341346153846156
148.4 0.3137307692307692
148.6 0.3140673076923077
148.8 0.3144903846153846
149.0 0.31476923076923075
149.2 0.3151057692307692
149.4 0.3154134615384615
149.6 0.3157403846153846
149.8 0.3161538461538462
150.0 0.3164711538461539
150.2 0.31672115384615385
150.4 0.31703846153846155
150.6 0.31735576923076925
150.8 0.3177403846153846
