#\tau/\tau_{d} vs n_{pack}/N
0.0 0.0
0.2 0.0013733075435203095
0.4 0.004584139264990329
0.6 0.0067408123791102515
0.8 0.008578336557059961
1.0 0.010483558994197293
1.2 0.012117988394584138
1.4 0.013810444874274661
1.6 0.015570599613152804
1.8 0.017127659574468088
2.0 0.01867504835589942
2.2 0.020174081237911024
2.4 0.02135396518375242
2.6 0.02274661508704062
2.8 0.024216634429400384
3.0 0.025473887814313347
3.2 0.026856866537717603
3.4 0.028056092843326885
3.6 0.02932301740812379
3.8 0.0304642166344294
4.0 0.031499032882011606
4.2 0.032804642166344294
4.4 0.0337137330754352
4.6 0.03486460348162476
4.8 0.035764023210831726
5.0 0.036731141199226304
5.2 0.03782398452611219
5.4 0.03884912959381044
5.6 0.03978723404255319
5.8 0.0405899419729207
6.0 0.04131528046421663
6.2 0.04235976789168278
6.4 0.04323017408123791
6.6 0.04420696324951644
6.8 0.045154738878143134
7.0 0.04599613152804642
7.2 0.04679883945841393
7.4 0.047543520309477755
7.6 0.04822050290135396
7.8 0.049110251450676976
8.0 0.05
8.2 0.050667311411992266
8.4 0.05146034816247583
8.6 0.05225338491295938
8.8 0.05305609284332689
9.0 0.05368471953578337
9.2 0.05441972920696325
9.4 0.054951644100580274
9.6 0.05567698259187621
9.8 0.056392649903288204
10.0 0.0570889748549323
10.2 0.05775628626692456
10.4 0.05850096711798839
10.6 0.059081237911025146
10.8 0.059700193423597676
11.0 0.060319148936170214
11.2 0.06111218568665377
11.4 0.06191489361702127
11.6 0.06264023210831722
11.8 0.0631431334622824
12.0 0.0638588007736944
12.2 0.06446808510638298
12.4 0.06505802707930368
12.6 0.0656963249516441
12.8 0.06631528046421663
13.0 0.06699226305609284
13.2 0.06758220502901353
13.4 0.06829787234042553
13.6 0.06884912959381045
13.8 0.06949709864603482
14.0 0.07027079303675049
14.2 0.07076402321083172
14.4 0.0714119922630561
14.6 0.0721083172147002
14.8 0.07270793036750484
15.0 0.07329787234042554
15.2 0.07398452611218569
15.4 0.07459381044487427
15.6 0.0752321083172147
15.8 0.07579303675048356
16.0 0.07640232108317214
16.2 0.07695357833655705
16.4 0.07763056092843326
16.6 0.07834622823984526
16.8 0.07892649903288201
17.0 0.07949709864603481
17.2 0.07993230174081238
17.4 0.08054158607350097
17.6 0.08118955512572533
17.8 0.0818375241779497
18.0 0.08243713733075435
18.2 0.0830174081237911
18.4 0.0837137330754352
18.6 0.08444874274661508
18.8 0.08522243713733076
19.0 0.08590909090909092
19.2 0.08647001934235977
19.4 0.08716634429400387
19.6 0.0879110251450677
19.8 0.08851063829787234
20.0 0.0891779497098646
20.2 0.08980657640232108
20.4 0.09059961315280464
20.6 0.09113152804642166
20.8 0.09184719535783366
21.0 0.09250483558994198
21.2 0.09308510638297872
21.4 0.09367504835589942
21.6 0.09433268858800775
21.8 0.09508704061895551
22.0 0.09575435203094777
22.2 0.09645067698259188
22.4 0.0973404255319149
22.6 0.09794970986460347
22.8 0.09863636363636363
23.0 0.09934235976789169
23.2 0.09991295938104448
23.4 0.10049323017408124
23.6 0.10122823984526112
23.8 0.10189555125725339
24.0 0.10247582205029014
24.2 0.10311411992263056
24.4 0.10384912959381044
24.6 0.10465183752417795
24.8 0.10524177949709865
25.0 0.10596711798839457
25.2 0.10684719535783366
25.4 0.10759187620889749
25.6 0.10818181818181818
25.8 0.10888781431334622
26.0 0.10969052224371373
26.2 0.11044487427466151
26.4 0.11111218568665376
26.6 0.11192456479690521
26.8 0.11266924564796905
27.0 0.11345261121856867
27.2 0.11415860735009671
27.4 0.11475822050290135
27.6 0.11547388781431335
27.8 0.11627659574468086
28.0 0.11705996131528046
28.2 0.11777562862669246
28.4 0.11859767891682786
28.6 0.11929400386847196
28.8 0.11998065764023211
29.0 0.12070599613152805
29.2 0.12144100580270793
29.4 0.12225338491295938
29.6 0.12302707930367505
29.8 0.12375241779497098
30.0 0.12459381044487428
30.2 0.12531914893617022
30.4 0.1259284332688588
30.6 0.12667311411992263
30.8 0.12731141199226306
31.0 0.12807543520309478
31.2 0.1289845261121857
31.4 0.12983558994197292
31.6 0.1306963249516441
31.8 0.13163442940038686
32.0 0.1324081237911025
32.2 0.13303675048355898
32.4 0.13382978723404254
32.6 0.13459381044487428
32.8 0.1354642166344294
33.0 0.13621856866537718
33.2 0.1368762088974855
33.4 0.13764023210831722
33.6 0.13834622823984527
33.8 0.13909090909090907
34.0 0.13985493230174081
34.2 0.140715667311412
34.4 0.14136363636363636
34.6 0.1420019342359768
34.8 0.14285299806576401
35.0 0.14365570599613153
35.2 0.14451644100580271
35.4 0.1452127659574468
35.6 0.14594777562862668
35.8 0.1467504835589942
36.0 0.1474274661508704
36.2 0.14817214700193423
36.4 0.14893617021276595
36.6 0.1495551257253385
36.8 0.1504642166344294
37.0 0.15128626692456482
37.2 0.15203094777562862
37.4 0.15272727272727274
37.6 0.1534622823984526
37.8 0.15427466150870406
38.0 0.15515473887814313
38.2 0.15605415860735009
38.4 0.1566247582205029
38.6 0.1573017408123791
38.8 0.15809477756286267
39.0 0.1588394584139265
39.2 0.15956479690522243
39.4 0.16037717601547388
39.6 0.16100580270793036
39.8 0.16179883945841392
40.0 0.16258220502901352
40.2 0.16340425531914893
40.4 0.16416827852998064
40.6 0.1650193423597679
40.8 0.16568665377176015
41.0 0.1663733075435203
41.2 0.1669439071566731
41.4 0.1677176015473888
41.6 0.1684622823984526
41.8 0.1690909090909091
42.0 0.1698936170212766
42.2 0.170715667311412
42.4 0.17142166344294005
42.6 0.17199226305609283
42.8 0.17266924564796907
43.0 0.17323984526112185
43.2 0.17400386847195357
43.4 0.17467117988394584
43.6 0.17533849129593812
43.8 0.17608317214700192
44.0 0.1768375241779497
44.2 0.17759187620889746
44.4 0.17827852998065766
44.6 0.17886847195357836
44.8 0.17957446808510638
45.0 0.18034816247582205
45.2 0.18115087040618957
45.4 0.1818375241779497
45.6 0.1825338491295938
45.8 0.18331721470019344
46.0 0.18418762088974855
46.2 0.18481624758220502
46.4 0.18554158607350096
46.6 0.18620889748549324
46.8 0.18703094777562865
47.0 0.18776595744680852
47.2 0.1883752417794971
47.4 0.18910058027079304
47.6 0.18961315280464217
47.8 0.19024177949709867
48.0 0.19088007736943907
48.2 0.1915667311411992
48.4 0.19209864603481625
48.6 0.19280464216634427
48.8 0.1935880077369439
49.0 0.19425531914893618
49.2 0.1949709864603482
49.4 0.1956382978723404
49.6 0.19638297872340427
49.8 0.19710831721470018
50.0 0.19762088974854933
50.2 0.19823017408123791
50.4 0.19882978723404257
50.6 0.1995164410058027
50.8 0.2001257253384913
51.0 0.200715667311412
51.2 0.20136363636363636
51.4 0.2021276595744681
51.6 0.20277562862669246
51.8 0.20343326885880078
52.0 0.2039651837524178
52.2 0.20458413926499033
52.4 0.20523210831721472
52.6 0.2058510638297872
52.8 0.2065183752417795
53.0 0.20718568665377177
53.2 0.20783365570599613
53.4 0.20848162475822052
53.6 0.20920696324951646
53.8 0.20985493230174082
54.0 0.2104255319148936
54.2 0.21088974854932302
54.4 0.21156673114119923
54.6 0.21211798839458415
54.8 0.2127659574468085
55.0 0.21330754352030948
55.2 0.21402321083172146
55.4 0.21479690522243713
55.6 0.2154835589941973
55.8 0.21604448742746615
56.0 0.2167311411992263
56.2 0.21729206963249517
56.4 0.21794003868471953
56.6 0.2184816247582205
56.8 0.21911025145067697
57.0 0.21969052224371374
57.2 0.22020309477756286
57.4 0.22079303675048353
57.6 0.22140232108317215
57.8 0.2220212765957447
58.0 0.22257253384912962
58.2 0.22310444874274662
58.4 0.22363636363636363
58.6 0.224284332688588
58.8 0.2248065764023211
59.0 0.22559961315280463
59.2 0.22617988394584138
59.4 0.22684719535783365
59.6 0.2275725338491296
59.8 0.22810444874274663
60.0 0.22872340425531912
60.2 0.22940038684719535
60.4 0.22996131528046423
60.6 0.23058027079303675
60.8 0.23112185686653772
61.0 0.23176015473887815
61.2 0.23233075435203093
61.4 0.23300773694390717
61.6 0.23359767891682787
61.8 0.23423597678916827
62.0 0.23479690522243715
62.2 0.23539651837524178
62.4 0.2360154738878143
62.6 0.23667311411992262
62.8 0.23730174081237912
63.0 0.23798839458413926
63.2 0.23852030947775626
63.4 0.2390909090909091
63.6 0.23956479690522245
63.8 0.2402321083172147
64.0 0.24088974854932302
64.2 0.24145067698259187
64.4 0.24196324951644102
64.6 0.24254352030947776
64.8 0.24302707930367504
65.0 0.24363636363636362
65.2 0.24423597678916828
65.4 0.24486460348162475
65.6 0.24543520309477757
65.8 0.2459477756286267
66.0 0.2466247582205029
66.2 0.24714700193423597
66.4 0.24775628626692456
66.6 0.24822050290135397
66.8 0.24891682785299807
67.0 0.24941972920696326
67.2 0.24993230174081238
67.4 0.25064796905222436
67.6 0.25127659574468086
67.8 0.2518375241779497
68.0 0.2524274661508704
68.2 0.25295938104448745
68.4 0.2535880077369439
68.6 0.2541972920696325
68.8 0.2547582205029013
69.0 0.25535783365570597
69.2 0.255889748549323
69.4 0.2565377176015474
69.6 0.25714700193423595
69.8 0.2577369439071567
70.0 0.2584139264990329
70.2 0.2590232108317215
70.4 0.25963249516441006
70.6 0.26024177949709865
70.8 0.2609284332688588
71.0 0.2615570599613153
71.2 0.2620116054158607
71.4 0.26269825918762085
71.6 0.26338491295938105
71.8 0.26400386847195356
72.0 0.26458413926499036
72.2 0.26518375241779496
72.4 0.26570599613152807
72.6 0.26629593810444874
72.8 0.26684719535783363
73.0 0.2674177949709865
73.2 0.26794003868471955
73.4 0.26844294003868474
73.6 0.2690328820116054
73.8 0.269642166344294
74.0 0.27029013539651836
74.2 0.2709477756286267
74.4 0.27158607350096714
74.6 0.2721179883945841
74.8 0.27277562862669247
75.0 0.27333655705996135
75.2 0.27400386847195357
75.4 0.27458413926499037
75.6 0.27520309477756283
75.8 0.27573500967117986
76.0 0.27631528046421666
76.2 0.27692456479690525
76.4 0.27743713733075437
76.6 0.27802707930367504
76.8 0.2785589941972921
77.0 0.2789168278529981
77.2 0.2793907156673114
77.4 0.28005802707930366
77.6 0.28067698259187623
77.8 0.281247582205029
78.0 0.281779497098646
78.2 0.2823791102514507
78.4 0.28297872340425534
78.6 0.28359767891682786
78.8 0.28427466150870406
79.0 0.28486460348162473
79.2 0.28539651837524177
79.4 0.28593810444874274
79.6 0.28642166344294007
79.8 0.2871083172147002
80.0 0.2877659574468085
80.2 0.28840425531914893
80.4 0.2888394584139265
80.6 0.28931334622823984
80.8 0.28992263056092843
81.0 0.29045454545454547
81.2 0.2911218568665377
81.4 0.2916537717601548
81.6 0.29219535783365574
81.8 0.2927369439071567
82.0 0.2933365570599613
82.2 0.2938878143133462
82.4 0.294468085106383
82.6 0.2949516441005803
82.8 0.29544487427466154
83.0 0.2960251450676983
83.2 0.29663442940038687
83.4 0.2972050290135396
83.6 0.2976595744680851
83.8 0.2981141199226306
84.0 0.2986750483558994
84.2 0.299284332688588
84.4 0.2997969052224371
84.6 0.30032882011605416
84.8 0.3009574468085106
85.0 0.30154738878143134
85.2 0.3021276595744681
85.4 0.30272727272727273
85.6 0.30321083172147
85.8 0.3038878143133462
86.0 0.30441972920696325
86.2 0.3049419729206963
86.4 0.3055029013539652
86.6 0.30604448742746615
86.8 0.3067021276595745
87.0 0.3073017408123791
87.2 0.3078143133462282
87.4 0.3083752417794971
87.6 0.30899419729206967
87.8 0.30947775628626695
88.0 0.3099323017408124
88.2 0.3104061895551257
88.4 0.3109574468085106
88.6 0.31152804642166343
88.8 0.31204061895551255
89.0 0.31260154738878143
89.2 0.31313346228239847
89.4 0.3137040618955513
89.6 0.3142553191489362
89.8 0.31484526112185685
90.0 0.31546421663442936
90.2 0.31600580270793033
90.4 0.3164990328820116
90.6 0.31709864603481625
90.8 0.31778529980657644
91.0 0.3183655705996131
91.2 0.31886847195357837
91.4 0.31944874274661506
91.6 0.3198839458413926
91.8 0.3204352030947776
92.0 0.3209864603481625
92.2 0.32144100580270796
92.4 0.3219535783365571
92.6 0.32255319148936173
92.8 0.3231237911025145
93.0 0.32368471953578337
93.2 0.32421663442940035
93.4 0.3247001934235977
93.6 0.32529013539651835
93.8 0.32596711798839456
94.0 0.32665377176015475
94.2 0.32707930367504834
94.4 0.3277562862669246
94.6 0.3282011605415861
94.8 0.32888781431334624
95.0 0.32943907156673113
95.2 0.33002901353965186
95.4 0.33052224371373307
95.6 0.3310251450676983
95.8 0.33159574468085107
96.0 0.33213733075435203
96.2 0.3326208897485493
96.4 0.3332011605415861
96.6 0.3337911025145068
96.8 0.3343133462282398
97.0 0.33483558994197293
97.2 0.3353771760154739
97.4 0.33585106382978724
97.6 0.3363442940038685
97.8 0.3367698259187621
98.0 0.33725338491295936
98.2 0.33779497098646033
98.4 0.3382978723404256
98.6 0.3387814313346228
98.8 0.33932301740812376
99.0 0.339825918762089
99.2 0.34043520309477754
99.4 0.34090909090909094
99.6 0.34146034816247584
99.8 0.3420502901353965
100.0 0.3426112185686654
100.2 0.3432301740812379
100.4 0.34375241779497095
100.6 0.34421663442940037
100.8 0.34477756286266925
101.0 0.34513539651837527
101.2 0.34572533849129594
101.4 0.3462185686653772
101.6 0.34667311411992263
101.8 0.34719535783365574
102.0 0.34767891682785296
102.2 0.34823984526112184
102.4 0.3486266924564797
102.6 0.34915860735009674
102.8 0.3497001934235977
103.0 0.35024177949709867
103.2 0.35084139264990327
103.4 0.3513636363636363
103.6 0.3517504835589942
103.8 0.3523887814313346
104.0 0.35285299806576403
104.2 0.3533752417794971
104.4 0.3538684719535783
104.6 0.3543326885880077
104.8 0.35490328820116057
105.0 0.3555802707930368
105.2 0.3559767891682785
105.4 0.35650870406189555
105.6 0.3569825918762089
105.8 0.35741779497098647
106.0 0.3578239845261122
106.2 0.3583752417794971
106.4 0.35885880077369436
106.6 0.3593617021276596
106.8 0.35988394584139266
107.0 0.360357833655706
107.2 0.3609767891682785
107.4 0.36150870406189556
107.6 0.36204061895551254
107.8 0.36253384912959385
108.0 0.3630174081237911
108.2 0.36345261121856864
108.4 0.3638878143133462
108.6 0.3643423597678917
108.8 0.3648742746615087
109.0 0.36532882011605416
109.2 0.3657350096711799
109.4 0.36622823984526115
109.6 0.36670212765957444
109.8 0.367330754352031
110.0 0.3677176015473888
110.2 0.36823017408123787
110.4 0.36877176015473884
110.6 0.3694003868471954
110.8 0.3697775628626692
111.0 0.37027079303675053
111.2 0.3708220502901354
111.4 0.37124758220502907
111.6 0.37170212765957444
111.8 0.37222437137330755
112.0 0.3725435203094778
112.2 0.37299806576402317
112.4 0.3735009671179884
112.6 0.37400386847195355
112.8 0.37446808510638296
113.0 0.37484526112185684
113.2 0.3753384912959381
113.4 0.3757930367504836
113.6 0.3762185686653772
113.8 0.3767504835589942
114.0 0.3772340425531915
114.2 0.37762088974854935
114.4 0.3781334622823984
114.6 0.37864603481624753
114.8 0.3791682785299807
115.0 0.3797872340425532
115.2 0.3802321083172147
115.4 0.3806866537717602
115.6 0.38109284332688587
115.8 0.38157640232108314
116.0 0.38197292069632494
116.2 0.38248549323017406
116.4 0.3829206963249516
116.6 0.38351063829787235
116.8 0.3839071566731141
117.0 0.38435203094777565
117.2 0.3847678916827853
117.4 0.38525145067698263
117.6 0.3856866537717602
117.8 0.3861702127659574
118.0 0.38670212765957446
118.2 0.3871953578336557
118.4 0.3876499032882012
118.6 0.3882301740812379
118.8 0.3886073500967118
119.0 0.3891972920696325
119.2 0.3898065764023211
119.4 0.39029013539651836
119.6 0.39071566731141194
119.8 0.3912282398452611
120.0 0.3915860735009671
120.2 0.39193423597678917
120.4 0.3924564796905222
120.6 0.3930174081237911
120.8 0.3934622823984526
121.0 0.39387814313346226
121.2 0.3943617021276596
121.4 0.3947678916827853
121.6 0.39524177949709866
121.8 0.3956673114119923
122.0 0.3961605415860735
122.2 0.39650870406189553
122.4 0.3970309477756286
122.6 0.39759187620889747
122.8 0.3981141199226305
123.0 0.39857833655705993
123.2 0.39894584139264994
123.4 0.3993520309477756
123.6 0.3998646034816247
123.8 0.4004061895551257
124.0 0.4007736943907157
124.2 0.40118955512572535
124.4 0.40180851063829787
124.6 0.40218568665377175
124.8 0.40270793036750485
125.0 0.4031237911025145
125.2 0.4035009671179884
125.4 0.40387814313346226
125.6 0.4042940038684719
125.8 0.4046808510638298
126.0 0.4051257253384913
126.2 0.405531914893617
126.4 0.4058607350096712
126.6 0.40624758220502905
126.8 0.4066827852998066
127.0 0.4072630560928433
127.2 0.4077272727272727
127.4 0.40814313346228237
127.6 0.4086653771760155
127.8 0.4091392649903288
128.0 0.4095938104448743
128.2 0.41004835589941974
128.4 0.41060928433268856
128.6 0.41101547388781434
128.8 0.41146034816247584
129.0 0.4120116054158607
129.2 0.41244680851063825
129.4 0.41292069632495165
129.6 0.4135009671179884
129.8 0.4139555125725339
130.0 0.41438104448742746
130.2 0.41486460348162474
130.4 0.41543520309477755
130.6 0.4158413926499033
130.8 0.41633462282398453
131.0 0.4168085106382978
131.2 0.4173694390715667
131.4 0.41774661508704064
131.6 0.4182011605415861
131.8 0.4186073500967118
132.0 0.41909090909090907
132.2 0.41954545454545455
132.4 0.4199032882011606
132.6 0.42031914893617023
132.8 0.42080270793036756
133.0 0.42116054158607347
133.2 0.42161508704061895
133.4 0.4221083172147002
133.6 0.4225725338491296
133.8 0.4229883945841393
134.0 0.423568665377176
134.2 0.42405222437137335
134.4 0.42441972920696325
134.6 0.42488394584139266
134.8 0.4254835589941973
135.0 0.4260251450676983
135.2 0.4264119922630561
135.4 0.42684719535783366
135.6 0.427330754352031
135.8 0.4277562862669246
136.0 0.42821083172147
136.2 0.42868471953578335
136.4 0.429100580270793
136.6 0.42952611218568665
136.8 0.42995164410058023
137.0 0.4303868471953578
137.2 0.43082205029013537
137.4 0.4313056092843327
137.6 0.4316924564796905
137.8 0.4320793036750484
138.0 0.43263056092843327
138.2 0.433027079303675
138.4 0.4334622823984526
138.6 0.43391682785299807
138.8 0.43437137330754355
139.0 0.4347775628626692
139.2 0.4352127659574468
139.4 0.4357446808510638
139.6 0.4361992263056093
139.8 0.43676015473887814
140.0 0.4372920696324952
140.2 0.4376982591876209
140.4 0.4381528046421663
140.6 0.43868471953578336
140.8 0.43911025145067695
141.0 0.4394487427466151
141.2 0.4400193423597679
141.4 0.4404448742746615
141.6 0.4408027079303675
141.8 0.4412379110251451
142.0 0.4416827852998066
142.2 0.44212765957446803
142.4 0.4425628626692456
142.6 0.44300773694390716
142.8 0.4434622823984526
143.0 0.4439458413926499
143.2 0.4443907156673114
143.4 0.4448839458413926
143.6 0.44548355899419734
143.8 0.44585106382978723
144.0 0.4463733075435203
144.2 0.4467117988394584
144.4 0.4471760154738878
144.6 0.44761121856866537
144.8 0.4479497098646035
145.0 0.44853965183752414
145.2 0.4489458413926499
145.4 0.4494874274661509
145.6 0.44988394584139263
145.8 0.45034816247582204
146.0 0.4507253384912959
146.2 0.4510348162475822
146.4 0.4516441005802708
146.6 0.45200193423597684
146.8 0.4524081237911025
147.0 0.45276595744680853
147.2 0.45327852998065765
147.4 0.4537814313346228
147.6 0.45422630560928434
147.8 0.45456479690522245
148.0 0.45502901353965186
148.2 0.45536750483558996
148.4 0.45586073500967117
