#\tau/\tau_{d} vs n_{pack}/N
0.0 0.0
0.2 0.0013333333333333333
0.4 0.003941391941391942
0.6 0.0060146520146520145
0.8 0.007538461538461538
1.0 0.008791208791208791
1.2 0.009963369963369963
1.4 0.01076190476190476
1.6 0.011663003663003664
1.8 0.012652014652014652
2.0 0.013347985347985347
2.2 0.01413919413919414
2.4 0.015084249084249084
2.6 0.015838827838827837
2.8 0.016798534798534798
3.0 0.017553113553113554
3.2 0.01835164835164835
3.4 0.01901098901098901
3.6 0.019633699633699632
3.8 0.02049084249084249
4.0 0.02115018315018315
4.2 0.02185347985347985
4.4 0.022542124542124543
4.6 0.023172161172161174
4.8 0.023794871794871796
5.0 0.024424908424908427
5.2 0.02503296703296703
5.4 0.025641025641025644
5.6 0.02627106227106227
5.8 0.026813186813186812
6.0 0.02745054945054945
6.2 0.027999999999999997
6.4 0.02860805860805861
6.6 0.0290989010989011
6.8 0.029641025641025644
7.0 0.0303003663003663
7.2 0.03076923076923077
7.4 0.03134798534798535
7.6 0.03191208791208791
7.8 0.0323956043956044
8.0 0.03295238095238095
8.2 0.03349450549450549
8.4 0.03394871794871795
8.6 0.034424908424908425
8.8 0.03490842490842491
9.0 0.03542857142857143
9.2 0.03592673992673993
9.4 0.03633699633699634
9.6 0.03684249084249084
9.8 0.03728937728937729
10.0 0.0376996336996337
10.2 0.038234432234432236
10.4 0.03865201465201465
10.6 0.039113553113553114
10.8 0.03967765567765568
11.0 0.04013919413919414
11.2 0.040578754578754574
11.4 0.04107692307692307
11.6 0.04156043956043956
11.8 0.04216849816849817
12.0 0.04261538461538462
12.2 0.04317216117216117
12.4 0.043567765567765565
12.6 0.044000000000000004
12.8 0.04441758241758242
13.0 0.04482783882783883
13.2 0.04525274725274725
13.4 0.04565567765567766
13.6 0.04606593406593406
13.8 0.04652014652014652
14.0 0.04701831501831502
14.2 0.04749450549450549
14.4 0.04798534798534798
14.6 0.04838827838827839
14.8 0.04881318681318682
15.0 0.04917216117216117
15.2 0.04964835164835165
15.4 0.05004395604395604
15.6 0.05045421245421245
15.8 0.05084249084249084
16.0 0.051252747252747255
16.2 0.05162637362637363
16.4 0.05205128205128205
16.6 0.052556776556776555
16.8 0.05284981684981685
17.0 0.05333333333333333
17.2 0.053692307692307685
17.4 0.054124542124542124
17.6 0.054564102564102566
17.8 0.05496703296703297
18.0 0.05549450549450549
18.2 0.055948717948717946
18.4 0.05641758241758242
18.6 0.056783882783882786
18.8 0.05721611721611722
19.0 0.05756776556776557
19.2 0.057926739926739926
19.4 0.05835897435897436
19.6 0.05882783882783883
19.8 0.05928937728937729
20.0 0.05962637362637363
20.2 0.059985347985347985
20.4 0.060395604395604395
20.6 0.06085714285714285
20.8 0.06124542124542124
21.0 0.06168498168498169
21.2 0.06202197802197802
21.4 0.062373626373626374
21.6 0.06276190476190475
21.8 0.06315750915750916
22.0 0.06358974358974359
22.2 0.06397069597069598
22.4 0.06421245421245421
22.6 0.06463003663003664
22.8 0.06496703296703296
23.0 0.0653992673992674
23.2 0.06576556776556776
23.4 0.06616849816849817
23.6 0.06665201465201466
23.8 0.06701098901098901
24.0 0.06745054945054946
24.2 0.06782417582417583
24.4 0.06808058608058608
24.6 0.06851282051282051
24.8 0.06881318681318682
25.0 0.06915750915750916
25.2 0.06956043956043956
25.4 0.06994139194139194
25.6 0.07025641025641026
25.8 0.07073260073260074
26.0 0.07112820512820513
26.2 0.07152380952380953
26.4 0.07186813186813187
26.6 0.07223443223443224
26.8 0.07261538461538461
27.0 0.07309157509157509
27.2 0.07353113553113552
27.4 0.07386080586080586
27.6 0.0742051282051282
27.8 0.07457875457875458
28.0 0.0749010989010989
28.2 0.07523809523809524
28.4 0.07556043956043956
28.6 0.07587545787545787
28.8 0.0762124542124542
29.0 0.07651282051282052
29.2 0.07687912087912088
29.4 0.07726007326007327
29.6 0.07768498168498168
29.8 0.07797069597069597
30.0 0.07837362637362637
30.2 0.07871062271062271
30.4 0.07914285714285714
30.6 0.07953113553113553
30.8 0.07990476190476191
31.0 0.08024908424908425
31.2 0.08055677655677655
31.4 0.08094505494505494
31.6 0.0813113553113553
31.8 0.0816043956043956
32.0 0.08192673992673992
32.2 0.08237362637362637
32.4 0.08264468864468866
32.6 0.08290109890109891
32.8 0.08317216117216118
33.0 0.08345054945054946
33.2 0.08381684981684982
33.4 0.08416117216117217
33.6 0.08449084249084249
33.8 0.08482783882783883
34.0 0.0852014652014652
34.2 0.0855018315018315
34.4 0.08586080586080586
34.6 0.08624908424908424
34.8 0.08654945054945054
35.0 0.08679120879120879
35.2 0.08714285714285713
35.4 0.08752380952380953
35.6 0.08783882783882785
35.8 0.08816849816849817
36.0 0.0885934065934066
36.2 0.08898168498168499
36.4 0.08934065934065934
36.6 0.08980952380952381
36.8 0.09006593406593406
37.0 0.09036630036630036
37.2 0.09065201465201465
37.4 0.0909084249084249
37.6 0.09128205128205127
37.8 0.09167032967032966
38.0 0.09189010989010989
38.2 0.09215384615384614
38.4 0.09247619047619046
38.6 0.09281318681318682
38.8 0.09315750915750916
39.0 0.09354578754578755
39.2 0.09388278388278389
39.4 0.09426373626373627
39.6 0.09459340659340659
39.8 0.09501831501831502
40.0 0.0953040293040293
40.2 0.09569230769230769
40.4 0.09604395604395605
40.6 0.09634432234432234
40.8 0.0968131868131868
41.0 0.09722344322344321
41.2 0.09752380952380953
41.4 0.09795604395604396
41.6 0.09827838827838828
41.8 0.09857142857142857
42.0 0.0988937728937729
42.2 0.09931135531135532
42.4 0.09961172161172162
42.6 0.09991208791208792
42.8 0.10012454212454212
43.0 0.10046886446886447
43.2 0.10082051282051281
43.4 0.10126739926739926
43.6 0.10154578754578754
43.8 0.10180952380952381
44.0 0.10215384615384615
44.2 0.10246153846153845
44.4 0.10286446886446887
44.6 0.10313553113553114
44.8 0.10357509157509158
45.0 0.10399267399267399
45.2 0.10431501831501831
45.4 0.10468131868131868
45.6 0.10503296703296704
45.8 0.10538461538461538
46.0 0.10582417582417582
46.2 0.10616849816849816
46.4 0.1064981684981685
46.6 0.10688644688644688
46.8 0.10726007326007325
47.0 0.10752380952380954
47.2 0.10785347985347986
47.4 0.10823443223443224
47.6 0.10863003663003663
47.8 0.10896703296703297
48.0 0.10928937728937729
48.2 0.10953113553113553
48.4 0.10987545787545788
48.6 0.11027106227106227
48.8 0.11056410256410257
49.0 0.1108131868131868
49.2 0.11115750915750916
49.4 0.11147252747252746
49.6 0.11185347985347985
49.8 0.11228571428571428
50.0 0.11265934065934066
50.2 0.112989010989011
50.4 0.11339194139194139
50.6 0.11375824175824176
50.8 0.1140879120879121
51.0 0.11442490842490843
51.2 0.11474725274725275
51.4 0.11515018315018315
51.6 0.11545787545787546
51.8 0.11587545787545787
52.0 0.11623443223443224
52.2 0.11665201465201465
52.4 0.11706227106227106
52.6 0.11731868131868131
52.8 0.11755311355311356
53.0 0.11786813186813187
53.2 0.11817582417582419
53.4 0.11850549450549451
53.6 0.11887179487179488
53.8 0.11924542124542124
54.0 0.11965567765567765
54.2 0.12001465201465202
54.4 0.12029304029304029
54.6 0.12057875457875458
54.8 0.12097435897435897
55.0 0.12132600732600732
55.2 0.12167765567765568
55.4 0.12207326007326007
55.6 0.12238095238095237
55.8 0.12274725274725276
56.0 0.12312820512820513
56.2 0.12344322344322345
56.4 0.1237948717948718
56.6 0.12412454212454213
56.8 0.12448351648351648
57.0 0.12487179487179487
57.2 0.1252014652014652
57.4 0.12547252747252746
57.6 0.12588278388278387
57.8 0.12623443223443223
58.0 0.1265860805860806
58.2 0.12689377289377288
58.4 0.12722344322344323
58.6 0.1275970695970696
58.8 0.1278974358974359
59.0 0.12823443223443223
59.2 0.12862271062271063
59.4 0.12893772893772895
59.6 0.12927472527472528
59.8 0.12961904761904763
60.0 0.12992673992673992
60.2 0.13027106227106228
60.4 0.13063736263736264
60.6 0.13098901098901097
60.8 0.13139926739926738
61.0 0.1318021978021978
61.2 0.13215384615384615
61.4 0.13254212454212455
61.6 0.13295238095238096
61.8 0.13323076923076924
62.0 0.1335750915750916
62.2 0.134
62.4 0.13435164835164837
62.6 0.1346739926739927
62.8 0.13495238095238096
63.0 0.13522344322344323
63.2 0.13546520146520147
63.4 0.13583150183150183
63.6 0.13624175824175824
63.8 0.13657875457875457
64.0 0.13696703296703297
64.2 0.1372893772893773
64.4 0.13755311355311356
64.6 0.13795604395604397
64.8 0.1383003663003663
65.0 0.13865934065934066
65.2 0.13894505494505494
65.4 0.13926739926739928
65.6 0.13956776556776557
65.8 0.1399047619047619
66.0 0.1401978021978022
66.2 0.14050549450549452
66.4 0.14098901098901098
66.6 0.14137728937728938
66.8 0.1418168498168498
67.0 0.14209523809523808
67.2 0.1424249084249084
67.4 0.1427912087912088
67.6 0.14314285714285716
67.8 0.14343589743589744
68.0 0.1437948717948718
68.2 0.14408791208791208
68.4 0.14443223443223444
68.6 0.14477655677655676
68.8 0.14512087912087912
69.0 0.1453992673992674
69.2 0.1456996336996337
69.4 0.14597069597069598
69.6 0.1463076923076923
69.8 0.14662271062271062
70.0 0.146996336996337
70.2 0.1474285714285714
70.4 0.1475970695970696
70.6 0.14797802197802198
70.8 0.14822710622710622
71.0 0.14863003663003663
71.2 0.14893772893772894
71.4 0.1493040293040293
71.6 0.14974358974358976
71.8 0.15013919413919413
72.0 0.15043223443223444
72.2 0.15083516483516482
72.4 0.15123809523809523
72.6 0.15146520146520145
72.8 0.15175091575091573
73.0 0.15216117216117214
73.2 0.1524981684981685
73.4 0.1528717948717949
73.6 0.15313553113553113
73.8 0.15345787545787545
74.0 0.15374358974358976
74.2 0.15412454212454213
74.4 0.15446886446886446
74.6 0.15472527472527473
74.8 0.15504029304029304
75.0 0.15534798534798536
75.2 0.15565567765567764
75.4 0.155992673992674
75.6 0.15634432234432233
75.8 0.15671794871794872
76.0 0.157032967032967
76.2 0.15742124542124541
76.4 0.15773626373626373
76.6 0.1581025641025641
76.8 0.15843956043956045
77.0 0.15877655677655678
77.2 0.1590769230769231
77.4 0.1594798534798535
77.6 0.15978021978021978
77.8 0.16013919413919414
78.0 0.16056410256410256
78.2 0.1609010989010989
78.4 0.16125274725274724
78.6 0.16153846153846152
78.8 0.16183882783882783
79.0 0.1621904761904762
79.2 0.16257142857142856
79.4 0.16293772893772893
79.6 0.16327472527472525
79.8 0.16359706959706957
80.0 0.1639120879120879
80.2 0.16419047619047616
80.4 0.16448351648351647
80.6 0.16474725274725274
80.8 0.16499633699633698
81.0 0.16534065934065936
81.2 0.16572161172161173
81.4 0.16603663003663005
81.6 0.16631501831501833
81.8 0.16655677655677656
82.0 0.16690109890109892
82.2 0.1671721611721612
82.4 0.16746520146520147
82.6 0.16794139194139196
82.8 0.1682930402930403
83.0 0.16864468864468865
83.2 0.16901098901098902
83.4 0.16931868131868133
83.6 0.16953113553113552
83.8 0.1698095238095238
84.0 0.17008058608058607
84.2 0.17043956043956043
84.4 0.1707252747252747
84.6 0.1709084249084249
84.8 0.1712893772893773
85.0 0.17159706959706958
85.2 0.1719194139194139
85.4 0.17219047619047617
85.6 0.1725054945054945
85.8 0.17277655677655676
86.0 0.17303296703296703
86.2 0.17343589743589743
86.4 0.1737142857142857
86.6 0.17399267399267399
86.8 0.17430036630036627
87.0 0.1746153846153846
87.2 0.1749230769230769
87.4 0.17522344322344324
87.6 0.17553113553113556
87.8 0.1757728937728938
88.0 0.1761025641025641
88.2 0.17645421245421247
88.4 0.1767765567765568
88.6 0.1770915750915751
88.8 0.17742857142857144
89.0 0.17772161172161172
89.2 0.17802930402930403
89.4 0.1783809523809524
89.6 0.17867399267399267
89.8 0.1789010989010989
90.0 0.17926007326007326
90.2 0.17951648351648353
90.4 0.1798827838827839
90.6 0.18026373626373626
90.8 0.18053479853479854
91.0 0.18085714285714286
91.2 0.18119413919413918
91.4 0.1814871794871795
91.6 0.18176556776556776
91.8 0.18216849816849817
92.0 0.18255677655677655
92.2 0.18284981684981683
92.4 0.18315750915750914
92.6 0.18345054945054945
92.8 0.18372893772893772
93.0 0.184021978021978
93.2 0.18439560439560437
93.4 0.18465934065934064
93.6 0.18495970695970695
93.8 0.18526007326007327
94.0 0.18551648351648353
94.2 0.18583150183150185
94.4 0.18611721611721613
94.6 0.18642490842490844
94.8 0.18676190476190477
95.0 0.18701098901098903
95.2 0.1872967032967033
95.4 0.18756776556776558
95.6 0.188007326007326
95.8 0.18832967032967032
96.0 0.18867399267399268
96.2 0.188974358974359
96.4 0.18928937728937728
96.6 0.1895897435897436
96.8 0.18986813186813187
97.0 0.19017582417582418
97.2 0.1905201465201465
97.4 0.19091575091575091
97.6 0.19116483516483515
97.8 0.19143589743589742
98.0 0.1916849816849817
98.2 0.19203663003663002
98.4 0.19240293040293038
98.6 0.1926886446886447
98.8 0.19299633699633698
99.0 0.19328937728937728
99.2 0.19355311355311355
99.4 0.19377289377289375
99.6 0.19405128205128203
99.8 0.1943003663003663
100.0 0.19466666666666665
100.2 0.19503296703296705
100.4 0.19532600732600736
100.6 0.19573626373626374
100.8 0.19595604395604396
101.0 0.19634432234432236
101.2 0.1966739926739927
101.4 0.196989010989011
101.6 0.19735531135531137
101.8 0.19764835164835165
102.0 0.19790476190476192
102.2 0.1981904761904762
102.4 0.19843956043956046
102.6 0.19875457875457875
102.8 0.19901831501831502
103.0 0.1992893772893773
103.2 0.19955311355311356
103.4 0.19983150183150183
103.6 0.20007326007326007
103.8 0.20032234432234433
104.0 0.20064468864468865
104.2 0.20087912087912088
104.4 0.20112087912087911
104.6 0.2013919413919414
104.8 0.2016996336996337
105.0 0.20202197802197802
105.2 0.2022857142857143
105.4 0.20254945054945053
105.6 0.20284249084249084
105.8 0.20317216117216116
106.0 0.20343589743589743
106.2 0.20367032967032966
106.4 0.20393406593406593
106.6 0.2042124542124542
106.8 0.20445421245421244
107.0 0.20469597069597067
107.2 0.20501831501831502
107.4 0.20543589743589746
107.6 0.20572893772893774
107.8 0.20602197802197803
108.0 0.2062930402930403
108.2 0.2065860805860806
108.4 0.20683516483516484
108.6 0.20702564102564103
108.8 0.20734065934065934
109.0 0.20764835164835166
109.2 0.20797802197802198
109.4 0.2083076923076923
109.6 0.2085934065934066
109.8 0.20883516483516484
110.0 0.20913553113553113
110.2 0.20942124542124543
110.4 0.20977289377289376
110.6 0.21011721611721612
110.8 0.2104175824175824
111.0 0.21071794871794872
111.2 0.210996336996337
111.4 0.2112014652014652
111.6 0.2114212454212454
111.8 0.21161904761904762
112.0 0.21196336996336995
112.2 0.21225641025641026
112.4 0.21258608058608058
112.6 0.21279120879120877
112.8 0.21304029304029304
113.0 0.2133113553113553
113.2 0.2136263736263736
113.4 0.21389010989010987
113.6 0.21414652014652014
113.8 0.21438827838827837
114.0 0.21467399267399265
114.2 0.21493040293040291
114.4 0.2151794871794872
114.6 0.21549450549450552
114.8 0.21575091575091576
115.0 0.21602197802197803
115.2 0.21635164835164836
115.4 0.21662271062271063
115.6 0.21694505494505495
115.8 0.21715750915750917
116.0 0.21735531135531136
116.2 0.21760439560439562
116.4 0.21786080586080586
116.6 0.21816849816849818
116.8 0.21852747252747254
117.0 0.21878388278388278
117.2 0.218996336996337
117.4 0.21927472527472527
117.6 0.2194945054945055
117.8 0.21983150183150182
118.0 0.22013919413919414
118.2 0.2204029304029304
118.4 0.22068131868131868
118.6 0.22095238095238096
118.8 0.2211941391941392
119.0 0.22139194139194138
119.2 0.22166300366300365
119.4 0.22196336996336996
119.6 0.2221904761904762
119.8 0.2225201465201465
120.0 0.22273992673992674
120.2 0.22303296703296702
120.4 0.22328937728937728
120.6 0.2236117216117216
120.8 0.22387545787545787
121.0 0.2242344322344322
121.2 0.22447619047619047
121.4 0.2247179487179487
121.6 0.22488644688644688
121.8 0.22515750915750918
122.0 0.22543589743589745
122.2 0.22567032967032968
122.4 0.22584615384615386
122.6 0.22613919413919414
122.8 0.22641025641025642
123.0 0.22666666666666668
123.2 0.22690842490842492
123.4 0.22722344322344323
123.6 0.22753113553113555
123.8 0.22783150183150183
124.0 0.2280805860805861
124.2 0.22840293040293042
124.4 0.22872527472527474
124.6 0.22893040293040293
124.8 0.22923809523809524
125.0 0.22953846153846155
125.2 0.2297142857142857
125.4 0.22991208791208792
125.6 0.2302197802197802
125.8 0.23049084249084248
126.0 0.23076190476190475
126.2 0.23101831501831502
126.4 0.23132600732600733
126.6 0.23165567765567766
126.8 0.23201465201465202
127.0 0.2322930402930403
127.2 0.2326153846153846
127.4 0.23287179487179485
127.6 0.23317948717948717
127.8 0.2333333333333333
128.0 0.23360439560439558
128.2 0.23394871794871794
128.4 0.23416849816849816
128.6 0.23438827838827836
128.8 0.23463736263736262
129.0 0.2348937728937729
129.2 0.2351868131868132
129.4 0.2354871794871795
129.6 0.2357802197802198
129.8 0.23602197802197802
130.0 0.23630036630036633
130.2 0.23649816849816852
130.4 0.2367765567765568
130.6 0.2371062271062271
130.8 0.23739926739926742
131.0 0.23764835164835166
131.2 0.23792673992673993
131.4 0.2381978021978022
131.6 0.2384029304029304
131.8 0.23863736263736265
132.0 0.23887179487179488
132.2 0.23914285714285716
132.4 0.23934798534798535
132.6 0.23963369963369963
132.8 0.2398754578754579
133.0 0.24014652014652016
133.2 0.24045421245421245
133.4 0.24073992673992672
133.6 0.24096703296703295
133.8 0.2412014652014652
134.0 0.24146520146520145
134.2 0.24172893772893772
134.4 0.24203663003663003
134.6 0.24235164835164835
134.8 0.24258608058608058
135.0 0.24288644688644687
135.2 0.24315750915750914
135.4 0.2433992673992674
135.6 0.24369230769230768
135.8 0.24389743589743587
136.0 0.24413186813186813
136.2 0.2444322344322344
136.4 0.24476923076923074
136.6 0.24503296703296706
136.8 0.24531135531135534
137.0 0.24555311355311357
137.2 0.24583150183150185
137.4 0.24603663003663004
137.6 0.24622710622710625
137.8 0.24651282051282053
138.0 0.2468131868131868
138.2 0.24707692307692308
138.4 0.2473919413919414
138.6 0.24761172161172162
138.8 0.24781684981684982
139.0 0.24808058608058609
139.2 0.2484102564102564
139.4 0.24862271062271063
139.6 0.24896703296703296
139.8 0.24926739926739927
140.0 0.24956776556776558
140.2 0.24985347985347986
140.4 0.2500805860805861
140.6 0.25033699633699635
140.8 0.25058608058608056
141.0 0.25084981684981683
141.2 0.2510695970695971
141.4 0.2513846153846154
141.6 0.25166300366300365
141.8 0.2519340659340659
142.0 0.2521391941391941
142.2 0.25247619047619047
142.4 0.25276190476190474
142.6 0.252996336996337
142.8 0.2532893772893773
143.0 0.25355311355311355
143.2 0.25379487179487176
143.4 0.254029304029304
143.6 0.2542417582417582
143.8 0.2545128205128205
144.0 0.25484981684981683
144.2 0.2550915750915751
144.4 0.2553772893772894
144.6 0.25562637362637364
144.8 0.2558974358974359
145.0 0.25613919413919417
145.2 0.25634432234432236
145.4 0.25653479853479855
145.6 0.2567838827838828
145.8 0.2568864468864469
146.0 0.2570842490842491
146.2 0.25732600732600736
146.4 0.2575897435897436
146.6 0.25794139194139193
146.8 0.2581684981684982
147.0 0.2584029304029304
147.2 0.25859340659340657
147.4 0.2587912087912088
